emg1,emg2,emg3,emg4,emg5,emg6,emg7,emg8,emg9,emg10,emg11,emg12,label
-4.725454099008553e-06,2.8659300680206246e-07,4.273767258470421e-06,-3.2414657354934747e-06,-2.596271697450814e-07,5.317967813737557e-07,1.4867119854240732e-06,-4.008556336230655e-06,2.2371105860125914e-06,-1.5405507538750936e-06,1.423049056126308e-07,-1.772613408248061e-07,6
1.0277856933167541e-06,2.1554298696895333e-05,1.624578702730359e-05,-3.166617738459302e-06,1.7277960604751204e-06,1.1814403242528181e-06,2.64654115119857e-05,-4.240554251341072e-05,4.0677278926071625e-07,-1.360229603024495e-05,2.6645319192835345e-07,2.502178814949726e-07,6
8.039902998276726e-06,5.246312405846644e-05,2.361140943487468e-05,7.831807173187021e-07,1.4321186834549079e-06,7.323647041739829e-07,3.531382992861629e-05,-6.567245090433566e-05,-1.4281076576834337e-06,-1.7387433990696836e-05,-1.5219254348369377e-07,3.067477052603395e-06,6
1.9115503688354913e-05,6.428457435956144e-05,2.300292940160182e-05,1.3194884749866602e-05,2.9989637779074008e-06,1.8466170000598662e-06,3.969963879023412e-05,-6.452431240316622e-05,-2.397924952172464e-06,-1.1240637301331818e-05,-8.752803030339755e-07,3.539607258810758e-06,6
3.2812322744890584e-05,4.758372756619002e-05,1.8123303825321458e-05,2.70955575542747e-05,7.142373787603458e-06,6.256934210570245e-06,4.7421846971693124e-05,-3.845487620307447e-05,-2.3300830647098957e-06,4.247151233932155e-06,-8.480624077321701e-07,1.1495892491068981e-06,6
4.1524097582603284e-05,2.3548583268426666e-05,1.193776875870734e-05,3.1504240742909584e-05,8.560642768746787e-06,1.0812042670162221e-05,4.997953502838523e-05,-3.03037259167259e-07,-3.126982885613671e-06,1.8794173813454227e-05,9.89775413781655e-07,-6.32972560088795e-07,6
4.121513754365822e-05,7.730534792134185e-06,6.560891496123944e-06,2.5862384605273936e-05,5.661282037371229e-06,9.905191412341463e-06,4.4232617099882295e-05,3.3961424786155235e-05,-6.966894570335934e-06,2.3405725076131325e-05,2.6476926273911066e-06,-2.158357201460152e-06,6
3.1570415672379036e-05,4.3428987121465045e-08,5.367265408145083e-06,1.6513023207818872e-05,7.650753289283692e-07,4.722311471060824e-06,3.255173250415915e-05,6.203560757460486e-05,-1.0723319186664748e-05,2.304751378727463e-05,1.929575016033634e-06,-3.95973425721986e-06,6
1.8960591886199542e-05,-5.5197153935293085e-06,5.703117373526649e-06,7.455852056628362e-06,-3.7073714982365217e-06,9.563208691895906e-07,1.4438979079687805e-05,8.021396706490802e-05,-9.281933784031601e-06,2.1650468841870456e-05,-5.044989031946852e-07,-2.8344826820955853e-06,6
5.6637014559237466e-06,-8.38378228684424e-06,3.7026564761112754e-06,-2.4194087447345826e-06,-5.787908140770002e-06,-1.4333691930057927e-06,-7.717817412467763e-06,5.901139464384654e-05,-4.796954741362579e-06,1.50899833074819e-05,-2.853323495452589e-06,1.0667426951128018e-06,6
-2.1464336647043565e-05,-9.05239577757428e-06,-1.3178120210863023e-07,-1.1665852158959595e-05,-5.7754761263063295e-06,-3.3456328913321265e-06,-2.739728834633311e-05,-1.0461026206823943e-05,-3.0023378718984062e-06,5.279364055228111e-07,-2.7399060392764917e-06,1.5821445114623947e-06,6
-5.341638195980172e-05,-1.0927353399797255e-05,-3.051637874507689e-06,-1.5409110068048447e-05,-3.966279444619821e-06,-3.9371036202834985e-06,-4.2516772324148365e-05,-7.078417851366092e-05,-4.0127205225991905e-06,-1.8059547242419827e-05,-9.847408825293265e-07,-1.5207324747836175e-06,6
-5.64749077976397e-05,-1.3382836893955874e-05,-3.2096956764383352e-06,-1.3877296857217566e-05,-8.507563897354097e-07,-4.87508909225634e-06,-5.386961527006218e-05,-7.074729384379038e-05,-4.862059102347488e-06,-3.4594877427122496e-05,-5.746268419357446e-07,-3.177070036101109e-06,6
-2.4368317644642354e-05,-1.6383912024551182e-05,8.872144284821917e-08,-1.0010216443711049e-05,1.1811677914088386e-06,-6.035062241223518e-06,-5.439724937010363e-05,-3.347807668820202e-05,-4.866735291851979e-06,-4.002776541693424e-05,-1.021024762475247e-06,-3.092947695953312e-06,6
1.2036216306058561e-05,-1.8104835716423217e-05,6.068952187075199e-06,-4.230944930971916e-06,1.6622378994645488e-06,-5.734650978253166e-06,-3.841099517665146e-05,-7.884191272766278e-06,-3.6514123028345564e-06,-2.3796506586446796e-05,-1.2798145356273843e-06,-1.5519918279904968e-06,6
2.0414365176712943e-05,-1.2193035389071566e-05,7.556791271273903e-06,1.6848638395419463e-06,1.5689031957193088e-06,-4.699575961789319e-06,-1.475183463361284e-05,-8.808971677296597e-06,-1.6815620542595727e-06,1.4367737625346106e-06,-6.468660241402287e-07,1.5049440579133559e-06,6
4.412427241071507e-06,4.845496636547356e-06,-2.2515954041171176e-06,3.441597124837549e-06,1.8783712474984603e-06,-3.143234418028795e-06,6.324407540226496e-06,-2.0176063119299197e-05,2.76030663419399e-07,9.023338504548044e-06,1.3965507089325717e-06,3.4663259375814967e-06,6
-1.2949221418497118e-05,2.218934158353527e-05,-1.7478585933040298e-05,1.228988002561023e-06,1.6485027368545427e-06,-1.0594488312005789e-06,1.9993825317228838e-05,-1.8349798140581136e-05,6.295791271143199e-06,3.189303977038487e-06,1.9133945552529753e-06,3.3861565420169555e-06,6
-2.572996188049756e-05,2.5074763040101614e-05,-2.5135703207960597e-05,-7.246599096212516e-08,-1.4389577003701652e-06,5.140056217739853e-07,2.2583435327757902e-05,6.193162647749623e-06,1.6355786201945962e-05,6.674085160127926e-06,9.893033459723322e-08,2.3015820387511645e-06,6
-2.8221713635373817e-05,1.8255159221310277e-05,-2.2265576156290427e-05,5.69863524717794e-07,-3.3580507200579214e-06,1.572274069837761e-06,1.6531728857826078e-05,4.208189180509819e-05,2.2109422209927123e-05,1.96175981808614e-05,-8.284914825162862e-07,7.989238136016698e-07,6
-1.4854030762359355e-05,6.381272742406132e-06,-1.7787706855318792e-05,1.4465081817811168e-06,-4.442219012453318e-07,2.0583347571691652e-06,7.714581515209274e-06,7.52777151133885e-05,2.4521708755225785e-05,2.2907709514705007e-05,7.097174683182791e-08,-7.946852623296465e-07,6
2.9694066902612167e-06,-1.568572311304228e-05,-1.5559490019666274e-05,4.662346092315292e-07,2.1357382146208913e-06,2.5050511286916466e-06,1.6573663338182243e-06,9.00466583241683e-05,3.04193550913193e-05,9.763460924383636e-06,1.9835354135894673e-06,-1.3457221365592568e-06,6
1.6724262115841806e-05,-3.2859312150118306e-05,-1.1387280173973588e-05,-6.799501268136566e-06,1.0703918189852153e-06,3.48398051721478e-06,1.9539247612820107e-06,7.379785449658284e-05,3.367298202071803e-05,2.5777528975242167e-06,3.3093110216436115e-06,-6.955694545739748e-07,6
2.5651307427131433e-05,-2.8047840206185836e-05,-2.6341458758016087e-06,-1.7329153234935875e-05,-1.212039770908841e-06,3.4152129955865095e-06,5.705742942708453e-06,4.1007249921901976e-05,2.692255761632459e-05,1.4139335201928329e-05,2.103537221055347e-06,-3.062928805009873e-07,6
2.937738762283524e-05,-1.2009361220162332e-05,1.0105225020091702e-05,-2.1392874421986768e-05,-3.3021736259718575e-06,3.09781189778568e-06,9.000082305672825e-06,1.0826475095895551e-05,1.4991656720619953e-05,1.8771210952635853e-05,1.5197219072775735e-07,1.0602618114898433e-06,6
3.100502626972438e-05,-1.249288182471164e-06,2.5172851116378048e-05,-1.810140314367756e-05,-3.898166677661325e-06,3.302884827463374e-06,1.0340825811196197e-05,-1.738888572542171e-05,5.314054584120344e-06,4.451055707715404e-07,1.70424207068063e-08,3.6544637534103617e-06,6
3.267703672032226e-05,8.635179123074921e-07,4.142457084678831e-05,-1.050034007145278e-05,-1.311903853809592e-06,1.9047499963551046e-06,1.0319221916519548e-05,-5.4434285180658115e-05,7.410376266524035e-08,-2.5342823127312874e-05,7.728592676573408e-08,3.6119109109784256e-06,6
3.4087733492373394e-05,1.0956126041854876e-06,4.783647635156417e-05,1.63624764648906e-06,2.007612654426576e-06,1.1652860760556803e-06,1.1225019230501187e-05,-0.00011084347603318676,-1.130884624000655e-05,-4.0484909477712265e-05,-9.446909862288615e-07,9.24997774556875e-07,6
3.315869378384158e-05,6.5244026691828134e-06,2.853506156151283e-05,1.3531684476546956e-05,3.044476458810463e-06,1.7904438174042347e-06,9.413738014773988e-06,-0.00015018104847230252,-4.46897364561194e-05,-3.816475633147329e-05,-1.4051629029022146e-06,-5.613440350689295e-07,6
2.6427435533205664e-05,1.0520802838929628e-05,-5.265569826366946e-06,1.8025108903002313e-05,2.519926146984038e-06,-1.0350519063942996e-06,1.4655267126349633e-06,-0.00010531989111816042,-8.820395692224433e-05,-3.07402527623619e-05,-5.842245117840637e-07,-4.668943468794397e-07,6
1.0385599467952925e-05,2.6761532354707307e-06,-2.685969594363703e-05,1.34114338163343e-05,9.013075228506317e-07,-4.8754270126615e-06,-4.776308087282691e-06,-1.550702673038541e-07,-0.00010565743558457809,-2.1820930755010192e-05,5.840310857151789e-07,-5.893783464745281e-07,6
-1.8061900213737838e-05,-7.354596466164735e-06,-3.0740769242245023e-05,4.052031316823234e-06,5.559986697508142e-08,-4.467312320639933e-06,-2.6708276270763777e-06,7.444946765805336e-05,-8.070971848193516e-05,1.2721686926555404e-05,4.2138139420863084e-07,-3.0248171119203487e-07,6
-4.97812266273452e-05,-5.397738482852736e-06,-2.5729836734114657e-05,9.023614735372166e-07,1.8078960906035562e-06,-2.969389363843462e-06,1.731491037387955e-06,8.618908302553866e-05,-2.996542261500579e-05,6.515182998033431e-05,-1.4672332639803426e-06,6.651321292546489e-07,6
-6.982658990525193e-05,-8.815188280583433e-09,-2.008922259327933e-05,1.4460429348362829e-05,1.570855457781174e-06,-2.555549238196456e-06,1.2153501728287298e-06,4.6346777850548105e-05,1.5779100761738985e-05,8.765448309100238e-05,-2.457142309791431e-06,-6.321496793112676e-09,6
-8.284508263112194e-05,-1.4281647954874785e-06,-1.8602148437171848e-05,3.694336735847866e-05,-1.9643576963343384e-06,-1.1294228885879255e-06,-4.981680884014731e-06,-1.6119956794522964e-05,3.357989077966578e-05,6.142981658908544e-05,-1.2022068252637705e-06,-1.5621886858599936e-06,6
-9.827425704441904e-05,-1.4940617936335762e-06,-1.6593630312442253e-05,3.720969276993274e-05,-3.5052910824719076e-06,-6.770482261149244e-07,-1.8433662847028067e-05,-4.340846348722679e-05,2.8573393272806816e-05,1.074563034264074e-05,1.6379350880897658e-10,-1.1152218851203187e-06,6
-9.844728191646514e-05,7.089065680641218e-06,-5.914937439650636e-06,3.116737684185135e-07,-1.6697934172843157e-06,-1.395919466349129e-06,-3.197006465779356e-05,-1.578088796479363e-05,2.4271432776637706e-05,-3.252591616566562e-05,1.5520397348754653e-08,-6.280986985855504e-07,6
-4.4585490088230436e-05,2.5783415616746345e-05,1.2357299014063876e-05,-3.963924025661368e-05,3.1749276353636417e-06,7.394973090470732e-07,-2.6811296527945263e-05,2.620477351336994e-05,3.518246249371852e-05,-5.355139020762596e-05,1.2150811360371984e-08,-2.7424849913512598e-06,6
6.432751686248343e-05,4.950894280862186e-05,2.67259639127727e-05,-4.611203040578382e-05,9.095716176798875e-06,4.368353790866116e-06,-4.1042668366423544e-06,4.556675289276093e-05,5.997705850538378e-05,-5.285468678445638e-05,4.5382179834559154e-07,-5.699859940535549e-06,6
0.0001452740087458864,4.8840549011428936e-05,2.8147892121134365e-05,-2.3665994387751934e-05,9.004370881624832e-06,5.498299772856381e-06,1.4123545000841433e-05,3.724620717412912e-05,8.188711277645688e-05,-3.658866014849476e-05,9.282098109428957e-07,-6.878135440165681e-06,6
0.0001231192406848741,9.613899082437922e-06,1.9318194735526282e-05,5.442793301665064e-06,1.1641848394117922e-06,2.844938654774936e-06,1.703188148521684e-05,1.443763343617929e-05,7.989146661200798e-05,-1.8800319408538633e-05,-1.3461107921666352e-08,-4.734070712012539e-06,6
3.9024711609560636e-05,-2.645464778411649e-05,9.371222474106432e-06,2.4007757874915208e-05,-7.2690770087382985e-06,-2.1060072872241034e-06,9.519277057501918e-06,-6.357694459731806e-06,5.283147444321689e-05,-9.879784985351868e-06,-2.0603166569003027e-06,-9.625142898190685e-07,6
-1.7538694480353403e-05,-3.069899116476785e-05,5.040093126511646e-06,2.7008886400579194e-05,-1.0185509579331044e-05,-4.5124461884867335e-06,1.5119374639106486e-06,-1.569154439685054e-05,1.913315929009243e-05,-5.345160898136042e-06,-1.7759095143914468e-06,7.162091372190737e-07,6
-1.5751731621169564e-05,-2.0534453781336644e-05,5.337332069327249e-06,2.1379361927639575e-05,-7.1798018200132464e-06,-2.5997571298198583e-06,1.411535771718711e-07,-1.0653382466708465e-05,-4.954174013455535e-06,2.224593830147078e-07,5.358502193253534e-07,1.1396216638372332e-06,6
1.7292143839619736e-05,-3.1877510702557256e-06,6.490062157377495e-06,1.2950336566309422e-05,-2.8738464550735843e-06,8.963065614225866e-07,3.334959337177431e-06,8.981164582861226e-06,-2.113152498240732e-05,6.009753718244218e-06,1.5791639572967792e-06,1.6284262603632004e-06,6
4.354000399549711e-05,1.512716233583192e-05,6.889200289642518e-06,5.33055764028264e-06,-8.87641911809149e-07,3.6066406294301744e-06,4.524624108615349e-06,3.150232253811428e-05,-3.9608757185663376e-05,1.0449924792328668e-05,1.4782760138512802e-06,-6.33947019279567e-07,6
4.208467947313971e-05,1.154578922800731e-05,4.6129724496405585e-06,2.1805546841574273e-07,7.116501412840486e-07,3.462013083087011e-06,2.1125555215694334e-06,4.279081131110103e-05,-5.795979689755651e-05,1.1686521406998731e-05,1.634830057089535e-06,-3.754160621773173e-06,6
1.463000379227136e-05,-1.488991057277868e-05,-1.5253546023479227e-06,-8.129636907478e-06,2.6130762668205027e-06,1.8635677506032583e-06,4.693104346161172e-07,4.192146177666603e-05,-6.740828840431215e-05,1.013818127171145e-05,2.33321665702447e-06,-7.298914500086242e-07,6
-1.6649328597684527e-05,-4.1949525004629e-05,-1.2109153921895658e-05,-2.2304121847266748e-05,3.1898605388180606e-06,1.7084797567005471e-06,2.4973619762974777e-06,2.1610443906868713e-05,-6.322455931747583e-05,1.22946753354114e-05,2.5571248778313035e-06,7.372856345124971e-06,6
-3.1613073815177295e-05,-4.8812807209781825e-05,-2.4442967292147365e-05,-3.392046884177543e-05,2.6140425892470127e-06,7.867875499004277e-07,4.130700325158214e-06,-2.2830259332513377e-05,-4.5051862435938995e-05,2.1073471841122e-05,1.1274674562374753e-06,1.3150909572127216e-05,6
-3.359570383916544e-05,-3.228937116621392e-05,-3.09360081628853e-05,-3.692747692077464e-05,1.1770788418325634e-06,-2.303536878566796e-06,1.6855913648869375e-06,-6.81438262320888e-05,-2.2014007691136878e-05,2.699655173826255e-05,-6.2463891619415e-07,1.4400432681329365e-05,6
-3.038697412629742e-05,-1.2590794049580823e-05,-2.8411104714488494e-05,-3.5027033281077664e-05,-4.1077606111917344e-07,-4.20973046208377e-06,-2.733672684124995e-07,-8.562701677030193e-05,-1.3634843062378276e-06,2.138052672420041e-05,-1.7337340344310928e-06,1.3363771331438178e-05,6
-2.012284013113918e-05,-4.325949243429965e-06,-1.889654573779033e-05,-3.252797152757957e-05,-1.5273334699625226e-06,-3.021774091110242e-06,6.471903763011519e-07,-7.00389741552088e-05,1.5220946338957428e-05,9.448127457441475e-06,-2.268643348205304e-06,1.329536836562098e-05,6
-7.847195515882089e-06,-4.483076874451795e-07,-5.153324204489918e-06,-2.7795991672574607e-05,-1.664241608400683e-06,-1.27349834372245e-06,-1.1520872600330503e-06,-4.49792441836612e-05,2.238445849875927e-05,8.202991295633786e-07,-1.8692528129087024e-06,1.1320081586756468e-05,6
-6.795539016256893e-06,8.704299204352599e-06,7.733402097899834e-06,-1.4440684790513835e-05,-5.17618872964679e-07,-2.261524005966744e-06,-6.659663889860121e-06,-2.8070828056840497e-05,2.1021382430209036e-05,-2.2226568813129063e-06,-1.2027423209194406e-06,-1.8522424587278358e-07,6
-1.844967723010804e-05,2.8939524997453173e-05,1.5951939953306724e-05,1.1432289147966067e-05,2.983793850889669e-07,-3.3254604948799743e-06,-9.212828298953327e-06,-4.952278479273656e-06,1.757476212302346e-05,-3.18575059149441e-06,5.14157950164613e-07,-1.5646897440769037e-05,6
-3.6601463978141156e-05,5.070329523889862e-05,1.8178014474181213e-05,4.252711188904212e-05,-1.4135227762116402e-08,-2.403407513976433e-07,-5.635616377613489e-06,2.8592646260816224e-05,1.3367290422864591e-05,-6.128420090871328e-06,2.0973378074359148e-06,-2.345191802377927e-05,6
-6.272730643318609e-05,4.645125290049157e-05,1.2790339735139585e-05,6.365540386592394e-05,-1.1005109186809375e-06,2.28016071395459e-06,-1.4418519576745629e-06,5.214654151346133e-05,7.0043131280885405e-06,-1.3108368523635708e-05,2.7443463492604924e-07,-2.2006203156196593e-05,6
-8.305303455820076e-05,1.8368605908128413e-05,4.733553969446923e-06,6.599973427025533e-05,-1.2495706343745284e-06,5.628118405343766e-07,-4.303495006276365e-07,5.8734539114117996e-05,1.1681705654972904e-06,-2.404976584821296e-05,-1.8195672831699558e-06,-1.478063510724763e-05,6
-5.864864568342163e-05,3.307951656799485e-06,3.1875715546300546e-06,5.4059327392094384e-05,1.4473856819363127e-06,2.2294966456675728e-07,2.495542765879046e-06,5.975253477755063e-05,3.0483589849563957e-06,-3.1014376578302854e-05,-2.059703280030397e-06,-6.975044179191906e-06,6
1.584426682793764e-05,1.0833446973195795e-05,6.322364168071331e-06,3.578788874451619e-05,4.494384922787009e-06,1.7572765125813124e-06,8.879251534538487e-06,5.993255893323633e-05,9.954158173864236e-06,-2.2634196783490304e-05,-2.7179210035362124e-06,-1.509217072622498e-06,6
8.215143963468801e-05,1.4248006330543193e-05,6.273275926736354e-06,1.3862299824826205e-05,4.4505466513984925e-06,8.840149056161086e-07,1.1830535841152442e-05,4.669175942814176e-05,1.3678661532944796e-05,-4.830691940266998e-06,-1.9571220884765894e-06,1.6610717470819574e-06,6
9.121210195409425e-05,-3.168305145259249e-06,1.8427546594458526e-06,-8.339430748068917e-06,2.093860912075745e-06,2.163852219476518e-08,7.98224412109147e-06,1.0868347417026278e-05,1.554573350301738e-05,7.748022504013861e-06,9.130230666607662e-07,2.735101994930378e-06,6
6.21383505454626e-05,-2.6665593287355794e-05,-2.676775313158137e-06,-2.470779352108342e-05,1.410340252149211e-06,1.6405423027322601e-06,2.3915013763916615e-06,-3.1329357765097635e-05,1.682953669072911e-05,1.2919294701604238e-05,2.5856996306942674e-06,4.439978155024724e-06,6
3.989828200638699e-05,-3.392365735655126e-05,-2.7223761475040544e-06,-3.435477326116684e-05,2.804003372593574e-06,3.754067680686039e-06,3.865768830186262e-07,-5.155557930934546e-05,1.667342321342237e-05,1.3811643776425986e-05,2.139004377145607e-06,6.455059131831901e-06,6
3.812679251881317e-05,-2.7964463792242406e-05,-1.6112661932000304e-06,-4.088415147589826e-05,1.9948307077418955e-06,4.3269378691605145e-06,8.008423979435053e-07,-3.700636241306895e-05,1.3280360980478094e-05,1.077445109270446e-05,1.435618672443601e-06,6.391272234408257e-06,6
4.06072329739673e-05,-2.3535826642582145e-05,-3.671345768650599e-06,-4.664999911817559e-05,-4.4642593425476065e-07,2.7835887280079753e-06,2.4208127185798e-06,-1.4601054315954012e-06,2.2923733388826565e-06,5.326122834534908e-06,1.8144964924708962e-06,5.8391474682765295e-06,6
3.467486850563083e-05,-1.9741729841917577e-05,-3.5179874876454824e-06,-4.6469383343560676e-05,-1.3902880482246409e-06,5.319480823951162e-07,4.3788945724638496e-06,2.5380995262377372e-05,-1.4663118646072101e-05,2.898904544718102e-06,1.945109937081238e-06,5.897641958872363e-06,6
2.363201658854024e-05,-1.103950406385315e-05,2.187539613216869e-07,-2.6050125747920702e-05,-2.4085714442039917e-06,-8.971753241891254e-07,4.828578572255386e-07,2.165558735752036e-05,-2.996534384397714e-05,4.248596980386102e-06,8.640916236303873e-07,5.820839841236077e-06,6
1.0757430727323683e-05,3.6890231111513866e-06,3.189250083882664e-06,1.0739534860270208e-05,-5.066679480245822e-06,-1.7152480080981404e-06,-9.124449622532878e-06,-7.200869017759536e-06,-3.2563833080809205e-05,2.0488288697768548e-06,7.029513082527723e-08,4.459163957193743e-06,6
-3.342677566777266e-06,2.3381490715930003e-05,6.651566688350392e-06,3.3730293372699354e-05,-7.698267061550225e-06,-3.275656695329473e-06,-1.5827378720520628e-05,-3.763017948983659e-05,-2.0139690684463586e-05,-4.388845257441956e-06,7.324716746492335e-08,2.001383801456652e-06,6
-1.0060625737333341e-05,3.9980899700919065e-05,1.1760902696118385e-05,2.850784492383648e-05,-7.240096262637832e-06,-4.865628880426759e-06,-1.614312886226514e-05,-5.4705904106982143e-05,-3.522999632562492e-06,-9.327223652042264e-06,-9.029442632416418e-08,7.1297951998066904e-09,6
-9.161563988466144e-06,4.724656968960094e-05,1.584796776412268e-05,9.01429199324137e-06,-2.9469778598708407e-06,-3.826985830300413e-06,-1.2551846022967632e-05,-5.9769301856188716e-05,1.0520301342133967e-05,-1.1222360993305598e-05,-1.4433259668834797e-06,-2.0662323422254264e-06,6
-2.283885616058498e-05,4.346385187521409e-05,1.4891063825016522e-05,-8.753320991828062e-06,1.142206656401503e-06,-2.2224367172606826e-06,-9.40891446370167e-06,-6.047413379677308e-05,1.4403301769425228e-05,-1.0322591992546645e-05,-3.3255627888066266e-06,-4.327666176706814e-06,6
-6.135545631353874e-05,2.4753040409351248e-05,7.301672690906188e-06,-2.0474385669476875e-05,1.4386328849002916e-06,-2.4228520961839976e-06,-6.520950407364172e-06,-5.491140990728281e-05,2.5118798280343655e-06,-6.0490284852443e-06,-3.2973995440394218e-06,-5.0969937811569584e-06,6
-0.00010415603353770653,-3.1609411755007088e-06,-2.3675585979234523e-06,-2.335375858249269e-05,5.790064376170101e-08,-1.2873951888587367e-06,-6.727602878832811e-08,-3.513648190111771e-05,-1.13555393612007e-05,6.720749520849901e-07,-1.5365835484831244e-06,-4.000305343137001e-06,6
-0.00012829061296829004,-2.4492455449821177e-05,-9.31543949758723e-06,-5.729669280864584e-06,9.567624768524846e-07,6.104714281124269e-07,4.911534380396337e-06,-9.1376895366719e-06,-1.2358694703401324e-05,7.175250641342088e-06,-1.1190916844330761e-07,-2.1761548888765583e-06,6
-0.00012180777001029051,-3.2760046048519515e-05,-1.341839467345863e-05,2.6560715270516332e-05,3.0978961400304216e-06,7.198331030338691e-07,3.0185087700175317e-06,1.3836246638325158e-05,-1.4254060343376591e-06,1.3151858731723974e-05,5.005602898316261e-07,-1.1817778284800948e-06,6
-8.383955951163191e-05,-3.8431620062062105e-05,-1.9213805883253522e-05,4.515545639338448e-05,2.718631840574399e-06,1.3413682667495029e-06,-3.4472574932871525e-07,4.100208237073672e-05,1.2605887523853298e-05,1.7872386907816747e-05,5.213258565825047e-07,-1.2425472134345205e-06,6
-1.355227618589727e-05,-4.90821484791415e-05,-2.8353919666568355e-05,4.003308282451825e-05,1.3655014885143665e-06,2.5836107641622778e-06,7.682156875070296e-07,7.91104110375596e-05,1.4929583200651755e-05,1.8937679801650707e-05,7.500587111676966e-07,-1.659242668010337e-06,6
9.171644393239589e-05,-4.822498027144396e-05,-3.2582181804068816e-05,2.230844613352333e-05,3.190611154099089e-06,3.4495704304657593e-06,5.550280637754475e-06,0.0001206442404542437,-4.112646345553331e-06,2.1391610715904913e-05,1.692035169856424e-06,-2.15623163846837e-06,6
0.00018020153172290204,-2.5734025751654574e-05,-2.8306373846984277e-05,2.3617368352155844e-06,5.222708197916984e-06,4.096264130830554e-06,9.075024683585375e-06,0.00014149714744586138,-2.7371160863378342e-05,2.5196184230852095e-05,2.1955946556089417e-06,-1.5370968647294967e-06,6
0.00016825215832827549,-4.592834825809352e-06,-2.2596472119816672e-05,-1.1517843041475559e-05,2.4911916484410744e-06,1.993828470659192e-06,1.2157865034649182e-05,0.00012660944872827128,-2.907110399990348e-05,1.437309786293698e-05,1.4784607974010639e-06,8.575081465590885e-07,6
7.191667121600868e-05,-1.6677368096047478e-06,-1.668203727972679e-05,-1.1426442973639383e-05,-1.5981575577398074e-06,-2.2381349716607413e-06,1.986749796512811e-05,8.911214258370146e-05,-1.055429206513986e-05,-1.3749304304252202e-05,2.860504799074212e-07,4.008414030571373e-06,6
-5.952411630295857e-06,-2.705015431138562e-06,-2.949349531052095e-06,-2.231366115413877e-06,-2.5630863650786623e-06,-4.128457603492413e-06,2.6616234086358174e-05,4.5454428383723306e-05,1.1699695514089538e-05,-3.679909941817198e-05,6.316374059886998e-08,7.080406099773375e-06,6
-2.124726017987893e-05,7.96909364783526e-06,1.8834794933445705e-05,-1.1019237535480428e-05,-1.5306398588709072e-06,-1.496628084853808e-06,2.3819525398029492e-05,-8.571980413658352e-07,2.9300434715530233e-05,-3.96406896508838e-05,1.0626211628411987e-06,8.021317303917209e-06,6
-1.1676738151934026e-05,2.328709156616795e-05,3.3801353559823004e-05,-4.709104858226146e-05,-6.760829899849775e-07,3.086541541644783e-06,1.1507464247326327e-05,-6.141016240111867e-05,3.725284511634427e-05,-3.1187560604423334e-05,1.3015417140075082e-06,5.277912116279079e-06,6
-1.0835707927402042e-05,3.0891254490933724e-05,3.325127666621913e-05,-7.14599074645753e-05,-1.566171631244273e-06,3.991773984573406e-06,-6.792831757169875e-06,-0.00013604455250568182,3.402513813430334e-05,-2.353350161151492e-05,-4.2314846492738976e-07,1.4193231001404375e-06,6
-1.5394336639715102e-05,3.344333936842618e-05,2.8602938622742046e-05,-4.928722726677649e-05,-2.2397286504881335e-06,9.4969165003261e-07,-2.4343321613263196e-05,-0.0001817472046547422,2.6752823489066173e-05,-1.5635217067187862e-05,-2.1944702271513788e-06,-7.696947706140502e-07,6
-1.53939455205061e-05,3.441813017420201e-05,3.0087120948024103e-05,4.052866188658417e-06,6.822644537967985e-07,-1.0565140097401648e-06,-3.42510958481842e-05,-0.0001725715703015108,2.173798258700253e-05,-4.909935962661224e-06,-1.6701140691946014e-06,-1.1802912401685015e-06,6
-1.2727066189441896e-05,3.092971552052782e-05,3.39513978693183e-05,5.112460757237702e-05,4.339331705889768e-06,1.3671599517092082e-07,-3.306480603520389e-05,-0.00014090881466058782,1.2994073869044904e-05,4.174727812758677e-06,-3.7820590165535294e-07,-1.3466534880719601e-06,6
-1.1557961554441055e-05,2.392158387638945e-05,3.26583319927221e-05,7.188155121081495e-05,5.345018154192391e-06,2.5414291022107886e-06,-1.8226548694075484e-05,-9.861249262878653e-05,-7.10426904374958e-06,1.0597437715167267e-05,-1.0574988134673528e-06,-2.635432400572874e-06,6
-1.0278931987338075e-05,1.7174123725531975e-05,2.192889315823026e-05,6.30019725950965e-05,4.200301177783835e-06,2.5597442574003825e-06,4.358092929572633e-06,-1.476208499375745e-05,-2.662314910159292e-05,1.8913234639854882e-05,-2.320917423652729e-06,-3.858838134030415e-06,6
-4.8542789966404635e-06,1.3147328440553725e-05,4.15548955867532e-06,3.221466694022064e-05,6.979499545808405e-07,-4.094009052036489e-07,2.0216798315821883e-05,9.32995757003178e-05,-3.0078264487250574e-05,2.6563277471665754e-05,-2.0175750431892735e-06,-3.780481253412352e-06,6
2.6525409809641196e-06,1.0215404251648925e-05,-1.0152359624192993e-05,2.03615687395255e-06,-2.843039259791326e-06,-2.57655014756424e-06,2.4605261606212813e-05,0.00015529039574306428,-2.387361243257041e-05,2.4232369971156885e-05,-4.6669419444712574e-07,-3.4883702058039314e-06,6
4.150335169651159e-06,6.109989502107669e-06,-1.549389573910333e-05,-1.1991826748657426e-05,-3.1581123998117922e-06,-1.6120769906535198e-06,2.6436759587323483e-05,0.00013936983752234792,-1.8801314136381985e-05,7.195703330628102e-06,9.672516547208886e-07,-4.438868834232866e-06,6
-2.2086070378102526e-06,1.863678731947245e-06,-1.8980468115067408e-05,-1.3853999608356515e-05,-2.930184802949661e-06,-7.644375296875541e-07,2.769407713591054e-05,7.653424484328793e-05,-1.7691302971392996e-05,-1.7420465303864218e-05,1.585841655941124e-06,-6.038551966014336e-06,6
-7.206060757992451e-06,2.4707977571815085e-06,-2.4471173079364632e-05,-1.1954463626028505e-05,-4.160254662569254e-06,-2.917186114708719e-06,1.6758824277227343e-05,2.367891188185206e-05,-2.1626793820741314e-05,-3.200405502757866e-05,2.2259446163541362e-06,-5.748501316786006e-06,6
-4.4006172699775325e-06,4.95355257821065e-06,-2.728379558519379e-05,-1.3778540175240917e-05,-5.257352460417088e-06,-5.229951900113374e-06,-8.315764044389125e-06,1.0617468000617792e-05,-2.536400339091604e-05,-2.8839774997994768e-05,2.1236440903104375e-06,-4.246653108522604e-06,6
-2.6120013446873405e-06,-1.9847893158524145e-05,-2.360639869332102e-05,-1.8601022074087455e-05,-4.567915500101163e-06,-5.054234605776625e-06,-3.375739158692316e-05,9.905103274505607e-06,-2.486728638536613e-05,-6.45317296614435e-06,6.742494102913002e-07,-4.229515268466786e-06,6
-1.062502277102153e-05,-7.293677850050459e-05,-1.483231362740818e-05,-1.8257977475978476e-05,4.393438904107454e-07,-2.171327391238467e-06,-5.081916578443371e-05,-6.256342970329294e-06,-1.967874364402667e-05,4.0996360040173014e-05,3.496624189598167e-07,-3.3691709225153523e-06,6
-2.309312240888969e-05,-9.136585548103171e-05,-1.0159061481477926e-05,-1.5301252676842416e-05,5.537434656397426e-06,1.9388982756170342e-06,-5.64793128614596e-05,-2.493778030902166e-05,-3.4212422609525173e-06,8.493271205856733e-05,8.965871979524021e-07,5.94176831377954e-07,6
-3.0054296503043764e-05,-5.409869634781314e-05,-1.5993639591404562e-05,-1.561033439010081e-05,4.037066754493387e-06,2.6276565441475834e-06,-4.463781338676537e-05,-3.381163910607967e-05,2.0260899686975198e-05,8.145501541106194e-05,4.340687006884034e-07,4.360040318613659e-06,6
-2.435149336534849e-05,-1.56132622083969e-05,-2.3127650921612523e-05,-1.5691097793941266e-05,-1.4053397484811283e-08,5.652438623900794e-07,-1.7448731660393767e-05,-3.768561592756689e-05,3.148429352535158e-05,3.727987626347741e-05,-3.5740098069999985e-07,6.565950532320996e-06,6
-9.68731520574173e-06,-1.4718372133177638e-06,-2.068752776400859e-05,-1.4959970382380712e-05,-1.6355378369583569e-06,9.168827538160661e-07,1.210464968549426e-05,-3.3783110142516376e-05,2.446988666101745e-05,-1.3487548539578914e-05,-1.2955901971073282e-06,9.175432388914337e-06,6
4.738421927044939e-06,6.093929035654162e-06,-1.1354220580620465e-05,-1.5443394692787454e-05,-1.3859117501197484e-06,1.9753472463680075e-06,3.418660490295129e-05,-1.566930914781394e-05,1.5125711354039402e-05,-4.779603954926704e-05,-1.4203988914061526e-06,1.1302068226240446e-05,6
1.6740594766258626e-05,1.3427879382490638e-05,-1.5136265297013685e-06,-1.413577414506238e-05,-4.567534227616917e-07,1.8670663036701408e-06,4.407734127845012e-05,1.5127754833165551e-06,1.1624123334342743e-05,-5.375195360217313e-05,-9.817399989281566e-07,1.1946230680430718e-05,6
2.1041057128597453e-05,1.4468996171830604e-05,6.781535769260283e-06,-1.8503262694076075e-05,1.7492686269582427e-07,2.8340124590712747e-06,4.1404362450417924e-05,-3.7699228503665008e-06,1.2742453187146258e-05,-3.888391863951575e-05,-2.7648666830096006e-06,1.0877244687450443e-05,6
1.7643590467390017e-05,1.1898845576109266e-05,1.3617057222085328e-05,-3.9661385912621695e-05,4.4144041293589674e-07,3.3074774339381977e-06,3.291198655450256e-05,-2.3861328909903393e-05,2.323224115239277e-05,-2.319997927827309e-05,-3.4817609993991507e-06,7.672859802480725e-06,6
1.6816854292958155e-05,1.669560838720136e-05,2.0491584839749435e-05,-5.29770974597434e-05,1.1883678948310377e-07,1.834762447359131e-06,2.397254385783384e-05,-3.1183404797986515e-05,3.8356660641010135e-05,-1.7926882133311382e-05,5.849994732742325e-07,6.094527454556112e-06,6
1.560939719364478e-05,2.4432676766599215e-05,2.5078012492770937e-05,-1.923263695185737e-05,-2.644336115749341e-07,-6.537686817225917e-08,1.1782229595462908e-05,-1.3095830836443277e-05,4.541524030913855e-05,-2.1034847617044023e-05,4.679630522129886e-06,5.011746112340561e-06,6
7.74455341680312e-06,2.1431802232177334e-05,2.3504299370550218e-05,5.3449877112397466e-05,-6.765804379664963e-07,-2.3924211756306635e-06,-4.750331119111857e-06,1.7544781782624125e-05,4.292164769188856e-05,-2.3908616067454398e-05,4.796792682954707e-06,-2.5566467628650098e-06,6
1.0024003430224193e-06,1.4962649242252923e-05,1.794287812031214e-05,0.00012434238404746245,-5.598328366038965e-07,-4.130287986427165e-06,-1.4657753717592723e-05,4.924591108223164e-05,2.8561807515919722e-05,-1.838993254781935e-05,2.2806118453432e-06,-1.2155198209834235e-05,6
2.9766739925069428e-06,1.6973575013315305e-05,1.3059454319251883e-05,0.00016101600680166691,1.7325992227886678e-06,-3.87704560102859e-06,-1.1098864060286086e-05,7.883349169483308e-05,-1.6843740011221908e-06,-1.1538270078644972e-05,-8.599891559927875e-07,-1.639019435455222e-05,6
1.033388428970809e-05,2.2534242116871953e-05,1.0901434582510465e-05,0.00015192456407325997,2.113913295771906e-06,-2.4661770870971722e-06,-4.9277837823368365e-06,8.647667401450968e-05,-3.778908757822284e-05,-1.6790364388184127e-05,-2.6435313732792286e-06,-1.6757153336500837e-05,6
1.4867848343519173e-05,2.5109883423889553e-05,8.909925712715922e-06,0.00011410436304593109,-1.567621497235964e-06,-1.7825942244113524e-07,-3.792638559280969e-06,5.961554460863071e-05,-6.214302408058581e-05,-2.3025270278227564e-05,-2.3389145598632093e-06,-1.3093943690816256e-05,6
1.3490140543448337e-05,2.3346924301480314e-05,5.558530644195312e-06,4.483421684116111e-05,-4.142598694506452e-06,1.4688264414673124e-06,-4.7276374390811985e-06,1.1688551717116577e-05,-5.924584796084435e-05,-8.723443449766798e-06,-1.758438139041676e-06,-5.6978430130636985e-06,6
7.5318903492174735e-06,1.5821145176398226e-05,5.2111434623264485e-06,-7.941223628168602e-05,-2.5970179859238192e-06,7.01303138664497e-07,-6.542609603349453e-06,-4.881347338971288e-05,-3.3560583567839116e-05,2.947190330911089e-05,-1.3861008450215853e-06,-2.9776745249468187e-07,6
-3.563266840151912e-06,2.5983367823567385e-06,9.612385714299817e-06,-0.0002011951733829233,1.523806773230193e-06,-4.4829228109666304e-07,-9.393681642891518e-06,-0.00010311001786743814,-2.010742420897087e-05,6.934124130643313e-05,1.3839810678624931e-07,1.1849171648742586e-06,6
-1.7568423440998108e-05,-1.2179040712577764e-05,1.4178226549383132e-05,-0.00021740175690869866,4.176384691218275e-06,-8.233515490614399e-07,-1.379699851330758e-05,-0.00010856503278202329,-3.986430415860514e-05,7.988872788496495e-05,2.3335721910230838e-06,2.397849266055281e-06,6
-2.4329910395041245e-05,-2.0378077643534628e-05,1.2926716143993666e-05,-0.0001246237426758564,5.047823046453177e-06,-9.55447427741658e-07,-1.7308302937022595e-05,-5.711683267023567e-05,-6.781941615896763e-05,5.975497036585246e-05,3.0502066211583657e-06,4.6207396176340276e-06,6
-1.655524931123968e-05,-1.982194586586683e-05,4.8162356100459015e-06,-1.3612494724173264e-05,7.390017192775567e-06,1.1159503343524223e-06,-1.3609652003851867e-05,4.033996273582585e-06,-7.224949888648538e-05,2.7233005527604594e-05,1.0945542668413163e-06,4.631627392807502e-06,6
-2.4364814215505957e-07,-2.0475979845076665e-05,-4.05368147921761e-06,4.9742258481758186e-05,9.263624086358105e-06,5.93317219596548e-06,-1.9519235643801054e-06,3.426442763110325e-05,-4.901677664658532e-05,-1.5053615151235417e-07,-9.58879293014186e-07,1.515934659052861e-06,6
1.1945155127573545e-05,-2.819351059670505e-05,-1.0822545098215581e-05,7.157535956695182e-05,7.343815891629388e-06,9.032055246252545e-06,1.0230576433438168e-05,3.5854957624694866e-05,-8.289612631649498e-06,-8.640246829839296e-06,-4.690837473240099e-07,-1.1659096100422357e-06,6
1.2575222019243213e-05,-2.924842229465087e-05,-1.9542133142766557e-05,7.6974214653067e-05,1.6361096014195732e-06,7.448760601736332e-06,1.3655718737992556e-05,2.682391225668756e-05,4.534536036044564e-05,-9.871597874575471e-06,1.548359321181055e-07,-1.4331646912146388e-06,6
4.325740633317123e-06,-8.66721095404461e-06,-3.179344357070874e-05,6.205199265804546e-05,-5.4880428710199705e-06,4.534431939937347e-06,8.63193226237232e-06,2.952819146976851e-05,0.00010695064213376619,-1.85238539649908e-05,-5.634190932634324e-07,5.37487835623899e-09,6
-5.6904701178821085e-06,1.681131500509201e-05,-4.3979575497319755e-05,1.0452519344232108e-05,-9.544168317914027e-06,2.2994856852359993e-06,5.2617310676593754e-06,6.225356674482378e-05,0.00015153744052459516,-3.136801143148342e-05,-1.3861961486854046e-06,2.0617443244153747e-06,6
-1.3405197680404607e-05,1.6623955852032497e-05,-4.9277760716635025e-05,-5.8868444782719186e-05,-8.886763387355282e-06,-1.5248006660606525e-06,8.2264428645204e-06,9.999199581986046e-05,0.00014511698486431197,-4.4808807717278155e-05,-2.475658850528057e-06,3.736477170950569e-06,6
-2.0058536310288145e-05,-2.8376086901716602e-06,-4.102811024994059e-05,-8.477520685238296e-05,-7.131696055054487e-06,-6.27851742739153e-06,1.1743187407233652e-05,9.209120186742272e-05,8.533798189622475e-05,-4.73594409800536e-05,-2.0191647858653857e-06,4.761128711637123e-06,6
-2.768864799720134e-05,-8.884430420691173e-06,-2.006749406911139e-05,-4.3445558273675784e-05,-7.614389801049774e-06,-9.288270260833627e-06,9.036181472603955e-06,2.0578924090795558e-05,9.42633847016637e-06,-3.3514398530115394e-05,3.6237511604231164e-07,4.708667887615489e-06,6
-3.058836189088113e-05,6.009250419284035e-06,3.898572597590201e-06,1.7272291104193017e-05,-7.0516392469694316e-06,-9.70968013149548e-06,2.494269507244704e-06,-7.498545615203302e-05,-4.483767722760509e-05,-1.7586369672665293e-05,4.578323098321674e-07,3.6946907000459614e-06,6
-2.2676793656889206e-05,1.9380430457048936e-05,1.7024123302678064e-05,4.883810907999844e-05,-1.8072238981676824e-06,-7.5528382117184785e-06,-1.8043829040998744e-06,-0.00012857881896961694,-6.602466217144913e-05,-3.0058734771075814e-06,-1.071944249199297e-06,2.608864848218349e-06,6
-7.428695450887777e-06,1.3102232104934593e-05,1.0785169459226027e-05,2.000212568921433e-05,3.6264255949356174e-06,-4.0047597200652586e-06,-5.3778195302211475e-06,-0.00013353253405307686,-6.657971110978102e-05,1.4767229040407308e-05,-7.297392671878984e-07,1.798875578195057e-06,6
7.484764949718516e-06,-7.326149512535202e-06,-4.927618100333383e-06,-6.789277338773381e-05,4.441048429892532e-06,-1.7624834892937464e-06,-1.3219175551506645e-05,-0.0001306354231927145,-7.072424797975021e-05,2.835935685964867e-05,1.0533059096419947e-06,2.005527135193537e-06,6
1.645328135002437e-05,-2.611975480603159e-05,-8.682948201436972e-06,-0.00012776805212744722,9.689487786532232e-07,-2.378897520096774e-06,-2.6299722458227337e-05,-0.00011919888395931646,-8.005663417394103e-05,2.8595248350159895e-05,2.886856608850372e-06,1.6278087978988023e-06,6
2.2735073508711066e-05,-3.5511502680425916e-05,9.159596246755695e-06,-7.880696280586499e-05,-2.069076765280586e-06,-3.445382217820886e-06,-3.600070440491154e-05,-7.816881676364756e-05,-6.614282642492223e-05,1.619031938248346e-05,3.11284803067507e-06,-1.2948718537160556e-06,6
3.338834107407675e-05,-3.25225595977238e-05,3.8002265753028924e-05,4.14560062481853e-05,2.1685214497826337e-07,-1.7070408023260364e-06,-2.8464328617856272e-05,-1.2722798868726909e-05,-2.8355304372743137e-05,9.48043175437729e-06,1.7023761404283173e-06,-4.186032104697052e-06,6
4.5263693193332085e-05,-1.5533714560628172e-05,5.6684212686768094e-05,0.0001392767028672877,4.615819819181634e-06,3.396581905809695e-06,-4.216567843069578e-06,5.087799222503303e-05,2.9472855932236483e-06,2.2910003374358684e-05,1.2052638203707978e-07,-5.570725048021612e-06,6
5.0390945986453976e-05,1.0270322426515566e-05,5.602786050292737e-05,0.00016774890088813631,6.846560825014253e-06,9.687892146994498e-06,1.901628281108847e-05,8.819817440691117e-05,2.7549378410975535e-05,3.6065212972190435e-05,-1.0843756445453832e-06,-5.647170947315709e-06,6
4.599549874306023e-05,3.4517844656512324e-05,4.587918726622618e-05,0.0001470572970094217,7.043814464584241e-06,1.2541594279298981e-05,2.857945863399977e-05,0.00010957272745644984,5.491748746636205e-05,2.2383855577005896e-05,-6.671829055796664e-07,-4.287627185799537e-06,6
3.326926803552466e-05,4.438250668709586e-05,3.285401654135731e-05,0.00011244612906162799,5.162916296492425e-06,1.054654218758216e-05,3.0513663719514506e-05,0.00013930388917879555,6.810509978281271e-05,-1.1907512007891288e-05,1.05924123553848e-06,-3.479584069474758e-06,6
1.6379704727677348e-05,3.560923455912829e-05,1.7299244175069295e-05,7.132437853329628e-05,2.511401997966665e-06,7.193636414078573e-06,3.078030289600432e-05,0.00016921562092474818,5.767578024880809e-05,-3.85798068601728e-05,1.7452118374321461e-06,-2.636746827065692e-06,6
-3.152848269581591e-06,1.957802618115381e-05,5.51862902051965e-06,2.054899470481859e-05,1.0448186577112406e-06,4.662460253163293e-06,2.4372117524668043e-05,0.00016610274934307333,3.032332632240715e-05,-4.142425530558473e-05,1.2889295894305684e-06,2.2292494389357426e-07,6
-3.573939569490218e-05,4.397674743568278e-06,5.388426462528753e-06,-3.32524781118538e-05,1.4371481431056996e-06,2.380279023444681e-06,1.627216833774575e-05,0.0001047049194308102,-3.5998007241189144e-07,-2.9977844737779958e-05,1.0815767404591747e-06,2.781727746932827e-06,6
-7.978448153160807e-05,-7.261993168085931e-06,1.5041899899931869e-05,-7.582086280501922e-05,9.886262833626683e-07,-1.8350443908404497e-06,1.0029614283485125e-05,-1.0432227219175756e-05,-2.2585969832448384e-05,-1.5013760185733714e-05,2.8873467561508185e-07,2.8369844361989308e-06,6
-0.00010048250945697619,-7.867821526108159e-06,1.0140257603669982e-05,-9.595629384761515e-05,-2.935080747084384e-06,-7.648081414237943e-06,-6.682141732879061e-06,-0.00012190181268993902,-3.53467438823026e-05,1.6754249362799036e-06,-1.0736184436389198e-06,1.999111611016846e-06,6
-8.07977898657003e-05,-2.9822218507688834e-06,-3.267175469509654e-05,-9.447440755559252e-05,-5.855551628549368e-06,-1.041372923693892e-05,-2.516349213979351e-05,-0.00015059106021497485,-2.724869174882369e-05,1.3134233806692407e-05,-1.0708195561292803e-06,2.162314377262611e-06,6
-4.793644756646686e-05,-9.307445502863454e-06,-8.788170371477979e-05,-7.970886644698153e-05,-5.027627055873508e-06,-9.339474576550397e-06,-2.3475538670494737e-05,-0.00010886295713865816,-3.8081631966996553e-06,1.5016168777479063e-05,-1.5462917146202434e-06,1.543844059607361e-06,6
-1.9906794687433706e-05,-2.406404840240987e-05,-0.00010548638078465054,-6.394661771130114e-05,-2.7122943980072494e-06,-7.437092324972308e-06,-1.0551718788870883e-05,-9.742099950989019e-05,-5.5684215441107836e-08,1.0504354901225168e-05,-3.3061433381573515e-06,-1.0921560834650773e-06,6
7.483583680313188e-06,-2.8782296384158416e-05,-7.876612721148199e-05,-5.68704095725144e-05,-6.481774102886922e-07,-4.772558246111678e-06,-4.406666765550429e-06,-0.0001295899748286299,-2.1237218543770964e-05,3.4113433336682144e-06,-3.9805302275644466e-06,-2.408326212854925e-06,6
3.1452380479067384e-05,-1.4913971870665562e-05,-3.937261153988478e-05,-5.5214667102854934e-05,-1.6725579277420604e-06,-1.792740168980026e-06,-4.2566896034784245e-06,-9.016155488945312e-05,-4.618022480033201e-05,-1.5219249993809695e-06,-3.6699959826114422e-06,-1.1706742233108607e-06,6
4.481883517852546e-05,7.151067462245583e-06,-8.777181052766066e-06,-4.758940008527843e-05,-4.217669458756817e-06,-5.991978177444491e-07,-6.59676929834952e-06,6.168959542391238e-05,-5.369074413352474e-05,-4.938690534677883e-06,-1.7985523923005033e-06,5.830923810737672e-07,6
4.806884453298905e-05,1.8597117525406855e-05,7.016237140032304e-06,-2.6120858885525195e-05,-4.810153624674184e-06,-8.896354098888696e-08,-1.052988374083631e-05,0.00019301469664693388,-2.6519849628848052e-05,-1.0287625852023189e-05,4.649617625459677e-07,2.398389061822174e-06,6
4.9432459934599416e-05,1.8621121627160244e-05,6.721086777816447e-06,8.094271663490373e-06,-4.657454866013507e-06,1.3940894268051922e-06,-1.0936042900056398e-05,0.00017501600048910675,1.902642703000796e-05,-8.253277842551372e-06,6.811243703301739e-08,4.1546153547806345e-06,6
5.263637232889724e-05,2.231928750952126e-05,-8.564737004901281e-07,4.9774948237400894e-05,-2.6298134017861893e-06,2.3996798567739457e-06,-6.040876070781907e-06,3.13478043658187e-05,4.845400503676059e-05,1.2470500350191642e-05,-6.248672801353038e-07,5.393931703291762e-06,6
5.233953528836479e-05,3.0905826899921735e-05,6.332053377280677e-07,7.128796337881437e-05,1.6356861382188515e-06,2.9619271324842713e-06,-1.355078538650654e-06,-0.00010276121560892235,6.3550550727655e-05,3.8223317830794265e-05,5.770890456513632e-07,4.4077833890131165e-06,6
4.586024115720324e-05,3.390761202268453e-05,1.997342706346469e-05,2.2085431255629233e-05,4.997897471932524e-06,4.821306218670876e-06,1.5378553594417367e-06,-0.0001068662511590718,8.172013446144871e-05,4.334057306194625e-05,2.271908919463491e-06,-2.539458730455618e-07,6
2.966591173340803e-05,1.7995498564117606e-05,4.372051338793438e-05,-7.703981172668548e-05,6.735954207143451e-06,6.136696124508776e-06,6.5127282927587705e-06,-1.1737719570593304e-05,8.212803152187866e-05,2.5447799600568248e-05,2.999234896447339e-06,-4.6213677955491294e-06,6
2.1253022898167117e-06,-1.964117561965198e-05,5.1581842990967646e-05,-0.0001154423357475099,6.351688840131501e-06,5.412692601934466e-06,1.3497607306277925e-05,4.4633709874647906e-05,4.9155577644480655e-05,-2.1711913616720825e-06,2.1157998458941368e-06,-5.253631390677619e-06,6
-2.654507327381306e-05,-5.03263016102922e-05,4.6215808449447826e-05,-3.525046592103398e-05,3.4218781336316807e-06,4.1536511692313195e-06,1.976628825763351e-05,1.6856797204533086e-05,1.3392177679225016e-05,-2.7689615160694277e-05,1.4917431113203263e-06,-3.915961649586568e-06,6
-4.91169247387101e-05,-5.360141233294469e-05,4.109112704561945e-05,9.292095343738636e-05,-1.2418193332896872e-06,2.4260072239241843e-06,2.1583220504110315e-05,-2.6803443255239446e-05,-7.444123610180349e-06,-3.496698960863526e-05,1.4542200256695619e-06,-1.7337728131028505e-06,6
-6.54430060437406e-05,-3.744332983658227e-05,3.668686828251616e-05,0.00015874286753581033,-5.941814952824377e-06,9.434993955532446e-07,1.5612980964231502e-05,-4.16495132493161e-05,-2.603742840502073e-05,-2.3961924424864243e-05,2.1520032602590096e-07,4.6111962118084867e-07,6
-6.799793726183866e-05,-1.1058542681326293e-05,2.728828626455582e-05,0.0001404061788558417,-7.791875428768253e-06,2.1989449577185342e-07,3.923101349766649e-06,-4.106873023681786e-05,-5.359503135128043e-05,-1.4037013555700519e-05,-5.279376417476315e-07,7.507094072932769e-07,6
-4.4646678832717955e-05,-2.073519415221579e-06,1.2739196622576227e-05,0.00010707699464265718,-5.650576256063752e-06,-1.3505279752022746e-06,-1.3542583763355824e-05,-4.0838318154177575e-05,-9.190136134005286e-05,-8.556558620139918e-06,3.938752421581514e-07,-9.778808909244368e-07,6
-3.4724506575390325e-06,-2.2587208783288254e-05,1.201443448380188e-06,9.879712403485209e-05,3.8589676418455323e-07,-2.2649898621162334e-06,-3.355601411184589e-05,-3.551067471569684e-05,-0.0001217440373856637,-4.645338378920126e-06,1.6790975193151066e-06,-2.8684090366338387e-06,6
2.9262330936123373e-05,-2.5544386229473837e-05,1.1161614429104724e-06,8.367155672747462e-05,8.439687239581917e-06,-1.007621999252158e-06,-3.8552504653221494e-05,-1.2919922303996379e-05,-0.00011447311212561699,-6.091538313455607e-06,3.0220021635760916e-06,-2.9195228875127127e-06,6
4.249614198688931e-05,1.0077998493397785e-05,6.380445739952091e-06,3.244938998254909e-05,1.3762552688781685e-05,3.167147627351334e-07,-2.227655072555634e-05,2.3307121773720626e-05,-6.215775890252023e-05,-7.4138891572627045e-06,3.784232953680969e-06,-1.3008748852306036e-06,6
3.381436694921985e-05,3.765774917383291e-05,4.205076041364445e-06,-3.360741831519935e-05,1.4268608764794243e-05,-3.4601269804225726e-07,-1.7809707129413365e-06,4.7784356918399074e-05,9.302354244458586e-06,-6.4684300745085935e-06,3.0429996999984195e-06,3.4346452339482337e-07,6
4.193069835195501e-06,3.108196562614576e-05,-6.354230156837076e-06,-7.755251624819062e-05,1.0221346840235673e-05,-3.1201506245828517e-06,8.082344916765268e-06,4.808980653192821e-05,5.7587391582710894e-05,-3.7467763768005725e-06,3.600876093084555e-07,1.3215786617440106e-06,6
-2.0619456360278824e-05,2.6479085079611482e-05,-2.0539575111170236e-05,-9.409912408170492e-05,2.1996309005377545e-06,-5.5198274891444405e-06,9.502155123970843e-06,4.687078099748419e-05,6.840615893072621e-05,5.828996448038177e-06,-2.6868039146755573e-06,2.0282177207471125e-06,6
-1.7361641689316302e-05,4.877628094291147e-05,-3.614498868046313e-05,-9.958492932609857e-05,-4.373848397386495e-06,-4.9708460416371275e-06,1.5076120350916408e-05,5.719967306818713e-05,5.542354702576552e-05,1.4773305511257112e-05,-3.2746680202689827e-06,2.449787600087078e-06,6
1.3999433342006962e-06,6.027476273739966e-05,-4.811996116850334e-05,-9.639750020122181e-05,-5.526292808444094e-06,-2.0291034307772083e-06,2.5977758696429746e-05,6.197562480123277e-05,3.589766146637054e-05,1.7844159631904152e-05,-2.1553821187249737e-06,2.5211410333954818e-06,6
1.1924747143159401e-05,2.9116392551971835e-05,-4.9685229502432625e-05,-7.496423382804629e-05,-5.156987539986516e-06,3.597788949235608e-07,3.025438585264922e-05,5.736990712776817e-05,3.125436621356574e-05,2.3279702697086566e-05,-1.6806643805703384e-06,3.260607975510417e-06,6
9.045509564638334e-06,-1.6009734263417272e-05,-4.010793664230339e-05,-3.7436671830558727e-05,-5.175829663347077e-06,1.2948672744348965e-06,2.5080322457650605e-05,5.915331568371722e-05,4.723890671602908e-05,2.761279141399219e-05,-3.1803301770466397e-06,3.5721080455441695e-06,6
-6.8673601597561985e-06,-3.831726134284297e-05,-2.676385250344647e-05,-4.115447918115274e-06,-4.846854654693705e-06,1.879317915808136e-06,1.5109505455477373e-05,5.888558019325686e-05,6.172065593934011e-05,2.274845314179791e-05,-5.6246704063417085e-06,2.0277076262901118e-06,6
-2.8367528007695625e-05,-3.8347040063904075e-05,-1.542384448852746e-05,1.114142811872289e-05,-6.3272301639956826e-06,8.782272873149043e-07,2.799480458904928e-06,1.469247555804246e-05,4.879377662527599e-05,1.2423478673212483e-05,-5.47371901639099e-06,5.859866247609409e-07,6
-2.862604548320196e-05,-3.0502961765259105e-05,-5.332384757820276e-06,1.9261383791324653e-05,-8.230294020393133e-06,-1.030501164123899e-06,-1.2831752567805324e-05,-7.841178547343988e-05,7.048496977919226e-06,3.7565642072880632e-06,-2.963785260524471e-06,-7.326534896289319e-07,6
-5.718338997509072e-06,-1.8112687568873492e-05,2.75050875317979e-06,2.5780536250179584e-05,-7.251667389934773e-06,-1.7581816207667332e-06,-3.047689296345729e-05,-0.00014502475976018418,-3.0678306077880875e-05,-1.6095854593621965e-06,-6.468420820650657e-07,-2.9145614058075024e-06,6
1.1328288414970863e-05,-9.140266319787608e-06,6.8216512532377235e-06,2.6607652122379755e-05,-5.437272093662952e-06,-2.3581742102317605e-06,-3.508249663176503e-05,-0.0001270476017424538,-3.812902707195283e-05,-1.3484613789280718e-05,1.321826995760273e-06,-3.6008049625330797e-06,6
1.3827702388172394e-05,-1.6338320512914598e-05,7.94605784492037e-06,2.188834419115943e-05,-4.699182489575309e-06,-2.2605013195580156e-06,-1.6111136807581657e-05,-6.258713235992519e-05,-2.9571701987291543e-05,-3.605727630576255e-05,2.5355896082420248e-06,-1.9584551522822584e-06,6
1.2249039730209734e-05,-2.6752519352556414e-05,7.181804698117352e-06,9.411351065682676e-06,-2.914505076953121e-06,-4.806929447765904e-07,1.2836273911703615e-05,-1.1636665485509586e-05,-2.161453784442065e-05,-5.498333775437956e-05,2.662220930898775e-06,3.6660030555489886e-08,6
1.558772629830186e-05,-1.5631484495320175e-05,7.2726967285904004e-06,6.908102390760616e-06,5.22370477079604e-07,1.6001780097079951e-06,2.9091936936633116e-05,1.7135776729374434e-05,-7.545151597954737e-06,-5.948451028897255e-05,2.3269098166881365e-06,1.6294178909896999e-06,6
2.3451464797401728e-05,1.4111983038399785e-05,1.2473891082423385e-05,-1.5219769277429238e-05,3.5179546283734253e-06,2.8650682434807996e-06,2.084904356581107e-05,3.245439093471106e-05,8.387452217065931e-06,-5.088263865087487e-05,2.0840629829618667e-06,3.1488973606926034e-06,6
2.5976034299047184e-05,3.489198264501985e-05,1.7986275068707988e-05,-0.0001423661191627545,4.706289170715954e-06,3.001151844625194e-06,-9.509596915994095e-07,2.26127003339816e-05,5.369855218591605e-06,-4.153505790905321e-05,2.7071742784961976e-06,3.1564663142267716e-06,6
2.387872238408034e-05,3.070274658764331e-05,1.7704773833628525e-05,-0.00029147861620369085,4.410853952743625e-06,3.2160714980302744e-06,-1.7000894638063758e-05,-7.119168780095527e-06,-1.6638818630916194e-05,-3.270905846844086e-05,3.0934523872405145e-06,7.612776754977672e-07,6
2.354315627843322e-05,1.8243594094364847e-05,1.9063679982555885e-05,-0.0002479266280759044,3.230321230624848e-06,3.4891613938641214e-06,-2.449665236390739e-05,-2.3283805527364904e-05,-3.718650351580585e-05,1.1288888242101825e-05,2.023856470767033e-06,-1.9574872087080353e-06,6
2.1551955101908706e-05,1.9258347192415003e-05,2.4576020102023812e-05,3.3181130103793217e-06,1.118575249843592e-06,2.097439788812774e-06,-2.53424206780598e-05,-2.0798470035634512e-05,-4.3458545685839894e-05,9.373392132437769e-05,1.3682710364798171e-06,-4.209596853439451e-06,6
1.263989889050872e-05,3.1005980748655484e-05,2.4651037708571415e-05,0.00025926818257537176,2.798444436632377e-07,1.339161016061926e-07,-1.632049690708829e-05,-2.0921450275080695e-05,-3.692701238956349e-05,0.00014808358289038835,1.5533652974390985e-06,-5.266488252168264e-06,6
-6.583786541806389e-06,3.0359354544528385e-05,1.919291232925272e-05,0.0003596167939468132,2.5733809441762664e-06,-8.006675206720735e-07,-2.0537899658637124e-06,-2.1371073141635854e-05,-2.311354733085522e-05,0.0001339502443794691,1.3839720915808447e-06,-3.794774781650463e-06,6
-3.276544185762149e-05,-5.8590638215447585e-06,1.4985657405770509e-05,0.0003168624304988385,4.907373263779187e-06,-2.897217496680116e-07,1.052521523730221e-05,-5.096672252884883e-06,-3.6393050662565176e-06,7.746894351481921e-05,2.6085704209364477e-07,-1.6908568614294841e-06,6
-5.829737348002202e-05,-6.102129731579142e-05,1.3789534740976637e-05,0.0002289192893872411,6.129753870166913e-06,1.6340713267052506e-06,2.000987014865882e-05,1.9627589273669388e-05,1.838486039214915e-05,1.590412940292362e-05,-2.4031046236018976e-06,-1.6193491901487826e-07,6
-8.256250343010648e-05,-8.21033566301486e-05,1.269313022926129e-05,0.00014405577206082275,7.62289010716689e-06,1.5121307632300573e-06,2.1377259646004975e-05,2.488339217737022e-05,3.664561835495377e-05,-3.16380736327888e-05,-3.743699617197081e-06,1.1684637098404963e-06,6
-9.627674544435091e-05,-4.843677778975264e-05,6.8667300978138115e-06,5.523655359718349e-05,6.6028456666608585e-06,-1.9335075776380297e-06,8.000909282561556e-06,9.666358793152585e-06,4.536425996419059e-05,-5.931960710116697e-05,-2.552640915989249e-06,2.2752907521895994e-06,6
-7.19113417532794e-05,4.700926161119295e-06,-2.130778111547429e-06,-3.376321203198486e-05,2.096057817509579e-06,-3.5593850726893783e-06,-1.3080598976439233e-05,6.837463188616848e-06,4.0344907447740125e-05,-6.893310088233714e-05,-2.078324354541427e-06,2.8867838771781453e-06,6
3.5936323106540487e-06,3.498531814403125e-05,-8.275537418159007e-06,-0.00010495435686039293,-8.796885267494413e-07,-1.6412331623198789e-06,-2.428840147869371e-05,3.6240060745997864e-05,2.5281210536886526e-05,-6.810633392719772e-05,-1.6145798425830156e-06,1.4009211102962317e-06,6
9.003415776349023e-05,3.634446323145697e-05,-1.2016622791063407e-05,-0.0001512923898083941,-1.176818285077523e-07,1.9212890442817972e-07,-2.1516790886789946e-05,7.697745016974459e-05,9.326988586362372e-06,-6.288994174337809e-05,-2.0037259337331992e-08,-1.394402861368072e-06,6
0.00012107658870809196,2.7808594917405007e-05,-1.902610228882324e-05,-0.00017469170029624833,6.164499326943133e-07,-8.787528312721952e-07,-1.5388331140713783e-05,9.62101266305827e-05,1.6420649811751646e-06,-5.1866564560635594e-05,6.921782672797177e-07,-2.1275585222091518e-06,6
8.50757704411494e-05,2.0198843296311456e-05,-2.964175508320596e-05,-0.00017750888291982584,-7.721961245651727e-07,-4.688848891874467e-06,-7.431793845908048e-06,9.15407062093258e-05,7.3954090547965095e-06,-3.375966092484799e-05,1.0705451389576546e-07,-1.841450091657476e-08,6
3.0821487803716686e-05,1.4850630943016849e-05,-3.612325067975679e-05,-0.0001580502755519934,-2.806118508776446e-06,-6.351595310913007e-06,8.089914298231353e-06,7.729367769239342e-05,1.3768238881913829e-05,-1.3507605356006765e-05,-5.88766820206214e-07,2.092354165034333e-06,6
-1.2049178583295611e-06,1.0903053455128914e-05,-3.282391587543558e-05,-0.00012249782104407594,-4.316147150932895e-06,-2.4435391762040577e-06,2.7535115292788852e-05,5.6802941154351775e-05,-1.4373195596553122e-06,1.9595655601948153e-06,5.989858644585894e-07,1.9395491033506654e-06,6
-9.93346230975873e-06,2.947229394240681e-08,-2.179806273165003e-05,-9.03288558596367e-05,-4.6615166852531795e-06,3.4027767503024094e-06,4.2164661396797266e-05,2.7824420202011343e-05,-4.003035630606792e-05,8.089044236472482e-06,2.72575326371302e-06,1.3139534897795579e-06,6
-1.376827437885288e-05,-2.1322695377212995e-05,-1.2338833803766497e-05,-5.834976824649433e-05,-5.655477605395756e-06,6.464327172616687e-06,4.6401556066601766e-05,-1.9499780247716057e-05,-7.588948438124213e-05,5.868828370554871e-06,2.296849132855427e-06,8.724685455124176e-07,6
-1.8231891312815725e-05,-3.695534625322109e-05,-1.1496652752862858e-05,-1.887545152900504e-06,-8.85118834290085e-06,6.1523547611241e-06,4.15409397424521e-05,-7.319728780621942e-05,-6.86640002206205e-05,4.729747516040081e-06,3.9157966598537145e-07,-3.000439279335185e-07,6
-1.4981737622870948e-05,-3.0653579895543605e-05,-9.652131677700966e-06,7.07150863099628e-05,-9.000911960939553e-06,5.576497684322489e-06,3.112321375902219e-05,-9.422380535521837e-05,-7.325780314972622e-06,1.2428532916297124e-05,-7.363548020606003e-07,-1.9914729323748353e-07,6
-5.742536549155967e-06,-1.16641613391859e-05,1.6853604172881088e-06,0.00011642373180183303,-3.090645406134038e-06,5.950585185971022e-06,1.2815620690737477e-05,-0.00010213200738548493,5.690536535536931e-05,2.460954822646393e-05,-1.1987922886593159e-06,1.4550552907743656e-06,6
-1.4564100083161737e-07,2.453827716156216e-06,1.3448313382878818e-05,0.00010709397386074461,2.468395476106047e-06,4.763355140160161e-06,-9.629204042062066e-06,-0.00013984802560016064,7.384648644666901e-05,3.254104735092159e-05,-2.565657256362544e-07,2.354034856928898e-06,6
-2.872875847338488e-06,1.2003065658338082e-05,1.982114179114942e-05,5.8751747162509414e-05,2.4998747092869926e-06,4.2334813505062414e-07,-2.6564816142318144e-05,-0.000153543732341932,5.099802492761503e-05,3.2769517549920114e-05,5.720282425867135e-07,1.8882434927510774e-06,6
-1.119576814972264e-05,2.220076178397704e-05,2.5036797364301192e-05,1.3977913012912613e-05,-3.487401972948355e-07,-5.398634945019684e-06,-3.895924747971459e-05,-7.82697742421475e-05,1.4130801256831543e-05,2.9604510460850052e-05,-1.0791646079217112e-06,2.005002844083857e-06,6
-1.6924580331954024e-05,2.808210860337181e-05,2.9801853457014605e-05,-9.824148843755442e-07,-3.345606224923881e-07,-7.920467873722426e-06,-4.887090069032199e-05,2.6664308316499366e-05,-1.776193856439132e-05,2.9432132039763643e-05,-2.2740489029008313e-06,3.94478745304978e-06,6
-1.9068943182406845e-05,2.4410940938107664e-05,2.98223365949825e-05,8.077112837324109e-06,2.829443034596168e-06,-6.95106398570227e-06,-5.1983548663649554e-05,5.6421049554763797e-05,-3.126433427624154e-05,3.1028721473327846e-05,-9.421491226928795e-07,4.066872475053019e-06,6
-2.465298898869476e-05,1.2808483564841718e-05,2.2848755415617015e-05,2.284886393924312e-05,4.0837538896195865e-06,-7.172825358929684e-06,-4.535002495626889e-05,3.1621410360794347e-06,-3.205367045899717e-05,2.4844273497367584e-05,-8.635782020664382e-08,1.707749825219073e-07,6
-2.7908425137726074e-05,4.4901678634302544e-07,1.1561666238037324e-05,3.3581271219284074e-05,3.029020786070735e-06,-7.86172577801022e-06,-2.754579997930343e-05,-5.200438895454408e-05,-3.193612308658335e-05,6.3405666438019455e-06,-2.3539834665444702e-07,-3.76132471308213e-06,6
-1.7315829749069555e-05,-7.524737565930843e-06,4.898230287438972e-08,3.515849622050034e-05,1.9208134547368977e-06,-6.5014436318164785e-06,-3.470522860225909e-06,-5.326341356270879e-05,-3.107084080151805e-05,-1.0435416430334859e-05,9.209122400709397e-07,-4.45399405791812e-06,6
-5.438194566041737e-06,-1.4062471580414457e-05,-1.1079249874645794e-05,2.2651042301309117e-05,8.388560395491825e-07,-2.9389738176205054e-06,1.4118021703549302e-05,-1.783836477066997e-05,-2.684092626085229e-05,-1.366383380280873e-05,2.272529323153285e-06,-3.2408366490918783e-06,6
-6.039513841166248e-06,-1.9318260384000227e-05,-2.2923072980407908e-05,2.894987987288789e-06,1.391381798865695e-06,1.333826487727843e-06,1.8391202745222975e-05,1.9556980818860246e-05,-1.9327809288122973e-05,-1.599100441572302e-05,1.3122654819329807e-06,-2.4823994807066025e-06,6
-2.2062938466842784e-06,-1.6874166241879473e-05,-3.037972778591676e-05,-1.1979351466643671e-05,2.466237872312097e-06,4.168483908556834e-06,1.3720928465900875e-05,5.6125869986598775e-05,-4.874031771502803e-06,-2.884406356651208e-05,-9.355523107964629e-07,-2.176255205911926e-06,6
1.5220834738354064e-05,-7.520840797358409e-06,-2.8049568098876588e-05,-2.464608332095332e-06,1.3925174226352928e-06,6.830108601545169e-06,8.093578911654226e-06,0.00010195005594566654,1.795953661970441e-05,-4.452725229000833e-05,-1.194282530724979e-06,-2.469544860729987e-06,6
2.866144451115538e-05,-1.2276071454498608e-06,-1.825191159790127e-05,4.1975111762409064e-05,1.8703619678195037e-06,8.7224208728834e-06,9.344712042022351e-06,0.00013742056007434066,3.9630731346064585e-05,-5.3875364524064425e-05,4.6107244330215344e-07,-3.3288615917575233e-06,6
2.969410005742295e-05,1.0194119614107038e-06,-5.847064276901844e-06,8.430414045307193e-05,4.8157376999186445e-06,7.909698680393092e-06,1.7018298786505027e-05,0.00012813166299697313,4.7907906234588484e-05,-5.353129519181222e-05,2.6296386262425873e-07,-3.59103036586067e-06,6
2.3862716871896388e-05,9.178287027274542e-06,2.616806108458559e-06,9.061829568780415e-05,3.6053384005372548e-06,4.981512237871056e-06,1.9887168379100093e-05,8.319880106499266e-05,3.9227242009338726e-05,-3.963420242422366e-05,-1.2377745282386464e-06,-5.112500691742159e-06,6
1.8155966393747508e-05,1.4637290596946987e-05,6.808444327288848e-06,4.658572723720718e-05,-2.5605258899031265e-06,7.662783168643597e-07,1.7556899350458034e-05,5.383466085869407e-05,2.5817116643790655e-05,-1.3383970071958251e-05,-8.788541615143591e-07,-8.003578261281386e-06,6
1.6309425511875446e-05,-1.156534793215936e-06,1.3694465711352974e-05,-7.970900464075613e-05,-6.710929492817218e-06,2.823224691704095e-07,2.2000625252066484e-05,5.70121787093312e-05,2.2440987783553305e-05,1.2135813303493162e-05,2.6676435849974184e-07,-8.753712117440959e-06,6
1.462176018626865e-05,-2.0434399137783346e-05,2.213411779660743e-05,-0.0002318338271359153,-5.610416884427891e-06,4.493445251769357e-06,3.137563516745904e-05,5.356066816129225e-05,2.7129516747044146e-05,2.596333975744139e-05,1.8981440041599948e-06,-7.0860446590185965e-06,6
1.3936662196105354e-05,-1.5374283993082447e-05,2.692381180401187e-05,-0.00025339885169505525,-2.3390640192340426e-06,6.58574701740522e-06,3.178283726713237e-05,2.6651767045473385e-05,3.2719826016929115e-05,3.0039974504729917e-05,3.905923125385765e-06,-3.853277629787491e-06,6
1.787987003037357e-05,-7.186503073277508e-06,2.4704192846792167e-05,-0.00011456431645261603,-9.377045228927649e-07,5.277271206070661e-06,1.84095197941797e-05,-1.0757609966758886e-06,3.01505287622457e-05,3.015000027828996e-05,3.3197555416541868e-06,5.62860532484792e-07,6
1.9532639971152964e-05,-2.198777375422399e-05,1.5073398190683896e-05,2.4569610886204084e-05,-2.750493735579836e-06,2.089211954791655e-06,-7.647456044442691e-07,-2.6664108846660293e-05,9.24688842394821e-06,3.311470710640164e-05,8.132320991157467e-07,5.447049354077925e-06,6
1.289734835355452e-05,-2.882724999456214e-05,3.4582632973639495e-06,4.532767372570169e-05,-4.5025660590251905e-06,-2.3227856342627803e-06,-1.4802294139697121e-05,-6.16848416676638e-05,-2.1302407395048442e-05,4.4916386261208106e-05,-7.286140121812187e-07,1.1417672431539339e-05,6
5.993864642995781e-06,-3.3522975251331463e-06,-8.759363244531439e-06,1.5098005775763e-05,-2.432182234331799e-06,-6.055606485558457e-06,-2.2006117393941108e-05,-0.00010518053082007953,-4.8629143972577795e-05,5.8048039363384606e-05,-1.6727250777352302e-06,1.6980773599437e-05,6
7.088025223899543e-06,2.3288864977628963e-05,-1.9173382428251926e-05,2.601292962391036e-05,1.2279361753706372e-06,-9.96782494450549e-06,-2.7975053038396167e-05,-0.0001411229676862385,-6.968469863791249e-05,5.73139452812143e-05,-2.8139064588597336e-06,1.9379512062184035e-05,6
5.265120239176907e-06,3.246001967716297e-05,-2.102545620120171e-05,4.8159618684842565e-05,2.8846724940381542e-06,-1.333449739511513e-05,-3.0320002934634043e-05,-0.00014423227868221166,-7.544004874136417e-05,3.843442684257953e-05,-3.5009251915984294e-06,1.8441860410167174e-05,6
-1.0825354919614435e-05,3.6057448424589904e-05,-1.6611354524095154e-05,3.777345923585575e-05,2.961849138540641e-06,-1.2662420910836636e-05,-2.4454372944139272e-05,-0.0001166697138177343,-5.850932386269345e-05,9.179352977560688e-06,-3.774005587609977e-06,1.4691731682928129e-05,6
-3.674411351429211e-05,3.449043077141431e-05,-1.0497294580855312e-05,3.238925327361553e-05,2.950340202522885e-06,-8.737338379680819e-06,-1.6728370961363864e-05,-9.052733393934598e-05,-2.8438563533485685e-05,-1.954359478305865e-05,-2.967040246174817e-06,9.212249645041158e-06,6
-7.147498622662852e-05,2.5536008829835494e-05,-4.384567410451409e-06,7.511915207846038e-05,5.123623589960096e-06,-4.29473357338861e-06,-1.241603782636135e-05,-7.218607010384999e-05,-7.917422786045528e-06,-4.222738644524229e-05,-6.593196089834687e-07,4.0373114459907035e-06,6
-0.00010646915053612203,1.375489567945064e-05,-5.467393753010351e-07,0.00014182243100005287,8.777521802921383e-06,-7.900249718554562e-07,-9.305298814564916e-06,-3.280126232712132e-05,-3.6958552815991678e-06,-5.0746331678999504e-05,3.7108147912824786e-07,2.2573835114215973e-06,6
-0.00011170470485916795,6.384364683728794e-06,3.310062540285129e-06,0.00017955446443767645,8.402879864540745e-06,5.763241648611875e-07,-5.148699007063402e-06,3.093864784491189e-05,1.8452613695084115e-06,-3.67920526838573e-05,-2.0406302211210618e-08,3.7433595024690228e-06,6
-6.403513387146705e-05,1.5656171520754936e-05,1.1828492342784039e-05,0.00016021115418259088,4.914508108975447e-06,1.99254333160811e-06,4.046880844093254e-08,7.840468021584718e-05,7.332105561748956e-06,-1.9545455342338047e-05,7.353085898462616e-07,-1.5482124043007094e-06,6
1.4994535139900711e-05,3.111965909352224e-05,2.2610261502082648e-05,9.215405730642458e-05,3.0728345766038283e-06,6.094365494293378e-06,6.319156623723914e-07,8.842645619750701e-05,1.1293638536849027e-05,-2.073044030014211e-05,2.0214111942329302e-06,-1.7167975149822914e-05,6
5.490546846152569e-05,1.2325335869918239e-05,2.1742420536668398e-05,1.6724980826325396e-05,1.0533062216035685e-06,1.0258270672438646e-05,-6.699910662834893e-06,8.314556662002482e-05,3.3409621627717534e-05,-3.607841946791068e-05,2.713128147062504e-06,-2.847944372576929e-05,6
1.546032809878965e-05,-5.434618508230512e-05,2.6887400020783466e-06,-8.343656909321383e-05,-3.473129033239987e-06,1.1007786178740288e-05,-1.345632387218773e-05,7.555396022687101e-05,4.612906635657458e-05,-5.3574116563136095e-05,3.4387100577581035e-06,-2.8137501318345443e-05,6
-4.348816612484541e-05,-0.0001133781890189228,-1.583020306145267e-05,-0.0002565012319408273,-9.574064178705494e-06,7.1679121299230955e-06,-1.1700392469130288e-05,5.244150195456299e-05,1.2660163431443772e-05,-5.463216354659549e-05,4.720758644389036e-06,-2.3036946125226597e-05,6
-1.8956195727570334e-05,-9.532441150308176e-05,-1.1629423211613969e-05,-0.0003835973163164167,-1.329034705514392e-05,2.558919632882135e-06,-2.2108578300587553e-06,1.7768580335532522e-05,-2.9476962237688875e-05,-3.5762643823209596e-05,4.395604347766558e-06,-1.5662913317194128e-05,6
0.00010869246794262739,-1.7509876542670524e-05,9.472181229458823e-06,-0.00030978760213075217,-1.0325092921305684e-05,3.3424697663860255e-06,1.2704532393429692e-05,3.85807302139355e-06,-3.808969650056429e-05,-1.0570611120685268e-05,6.744016325148232e-07,-7.11231652481699e-06,6
0.00022916561178061226,3.697249034732306e-05,1.3409472928211343e-05,-8.79822018655304e-05,-4.563001843652043e-06,5.955448828602911e-06,3.1386932490745076e-05,2.534352240999914e-05,-2.1251032245218936e-05,2.2356249032660793e-05,-3.1225486875761885e-06,-6.014336107770973e-07,6
0.00022714869525768504,4.0223022526262144e-05,-1.469462790396813e-05,0.00011766800182675851,-1.6442445214294047e-06,4.173943078453412e-06,4.849346271411172e-05,5.751934811328466e-05,2.6507766763387926e-06,5.319078715231437e-05,-3.4569621865010458e-06,3.945388508475359e-06,6
0.00010847007062849684,2.595427723646784e-05,-4.5108461588077056e-05,0.00018497449589693094,-1.432278649271377e-06,1.2512927210188405e-07,5.712199625733692e-05,7.205484819373743e-05,2.7184117648190634e-05,6.322649746379526e-05,-1.4965020009519012e-06,6.254559769029117e-06,6
-3.406427213959582e-05,9.856843848434835e-06,-5.5299632163498917e-05,0.00013383139388011448,-2.7990951943638317e-06,-3.2907759397862304e-06,5.762995906736211e-05,6.482387956690642e-05,6.052838331851383e-05,5.4444736415121614e-05,-1.2465301020642176e-06,5.6236998681498986e-06,6
-0.0001107501251872795,-7.73038748326425e-06,-4.95793284420014e-05,9.42017672534225e-05,-3.3962197731703614e-06,-4.547716991253282e-06,5.3592686676672905e-05,4.6394051766869095e-05,0.00010725772956973174,3.37900911998669e-05,-2.3175395868429008e-06,4.402565526737585e-06,6
-0.00010482490921331351,-9.123797213690432e-06,-2.97083512191066e-05,8.859904779857499e-05,-1.221071845691904e-06,-3.1617881636222527e-06,3.765104187894718e-05,1.8496190608022872e-05,0.00013753094531283178,1.148120283057411e-05,-1.200454129210855e-06,5.914287722024521e-06,6
-7.947113521125301e-05,1.5739730347749153e-05,5.288296048483454e-07,4.698196533149837e-05,1.2979416926182694e-06,-3.1116109688694683e-06,-1.5836009767457165e-06,-3.9629158245210436e-05,0.00011205259058781352,-4.04484116958163e-06,-2.1119191132543315e-07,9.62433055502021e-06,6
-8.472056201075518e-05,3.863820455545411e-05,3.105680297293775e-05,-2.5427247114396917e-05,1.8265341757297657e-06,-5.8016910847322305e-06,-5.514331333273387e-05,-0.00012202471024137671,4.031428441326341e-05,-1.3295309248787528e-05,-4.809739860758102e-07,1.1844121890609546e-05,6
-9.63898414512209e-05,2.7436653185789764e-05,5.2564026896670384e-05,-7.426696295584193e-05,2.9949980623186734e-06,-6.661223783852483e-06,-9.303700647491095e-05,-0.00016436380148323414,-2.4661562189685186e-05,-1.2887829967731976e-05,2.2473654047134536e-07,1.1438516045789355e-05,6
-7.643104049434923e-05,5.693866179652195e-07,5.893272836080175e-05,-7.14932003061281e-05,6.601819314024319e-06,-4.75524890197748e-06,-9.594670582372796e-05,-0.0001403024739623536,-5.122043864693804e-05,2.4737786452829584e-07,4.779241036115284e-08,9.46790994428895e-06,6
-3.349531864546752e-05,-7.148918622192957e-06,5.365570480192887e-05,-2.670187268483258e-05,7.978717209488763e-06,-3.2892896886339295e-06,-7.413861692369217e-05,-9.358908404616052e-05,-5.799886975864688e-05,2.1706351134464717e-05,-5.973738462629383e-07,7.885836655475806e-06,6
3.6931538653219347e-06,1.1169982329259137e-06,4.2055848747789156e-05,3.4467439528132525e-05,5.759501277691934e-06,-2.6259376517878986e-06,-4.629128163292002e-05,-4.460205128102724e-05,-7.704288916323889e-05,4.144201780568809e-05,4.7426556414469713e-07,8.719400495080729e-06,6
2.6059243889037498e-05,7.2734325150992934e-06,2.8289534935776064e-05,7.124906148485168e-05,4.904474095137298e-06,-2.5546395539699237e-06,-1.7154401863084878e-05,9.235917280827408e-06,-0.00011281193206708996,5.014668752698364e-05,1.162321008313719e-06,1.008055742408406e-05,6
3.917701980889684e-05,3.653246642819704e-06,1.6102162155230245e-05,3.812231514741077e-05,6.532886218993568e-06,-1.830648425343178e-06,1.3423563079322134e-05,5.51813970821075e-05,-0.00014356088068767439,4.065120299264588e-05,1.7179010346867371e-07,8.341180041951117e-06,6
4.5460359772018954e-05,-6.7023663581535354e-06,1.3359681226826778e-06,-2.990000356127925e-05,7.513123703642044e-06,1.7810302178151964e-06,3.659601921841209e-05,8.764388011245733e-05,-0.0001402721998313087,9.054040487627408e-06,-8.243089171142658e-07,5.151864419096807e-06,6
4.3590718091382616e-05,-1.4761348129404576e-05,-1.7439037097639224e-05,-4.191089529578975e-05,4.694157676945908e-06,5.223100131234767e-06,4.309521394176163e-05,9.851849979870563e-05,-8.919493913784097e-05,-3.0278539543928135e-05,-3.6691107432946286e-07,4.353992836594411e-06,6
3.427586626286385e-05,-1.896919820443536e-05,-3.1729152459775416e-05,2.0077847559739742e-05,-8.146278854910473e-07,5.656134418585008e-06,3.84273030203854e-05,7.853644000636277e-05,-2.4202821356994316e-05,-5.3716095650306345e-05,1.028563991071504e-06,1.0910534122764377e-06,6
2.021013427078417e-05,-2.2709270238852948e-05,-3.417299140823249e-05,9.325337693354126e-05,-5.146102545459173e-06,4.001054670671856e-06,3.111112658038787e-05,4.986194739075921e-05,3.6059680371293e-06,-5.407207921892686e-05,2.1894685320405057e-06,-9.221865350379285e-06,6
7.936285351651711e-06,-2.426531266934184e-05,-2.6213925698494158e-05,0.00011605005401105938,-9.07500929440878e-06,2.3316350165797244e-08,1.905283301372066e-05,4.299360052723214e-05,7.907319941291765e-06,-4.5034276721707576e-05,1.90975195295971e-06,-1.9115238183432554e-05,6
5.989931268223474e-06,-1.7416162547461823e-05,-1.5573674676571207e-05,8.045081549248969e-05,-1.13466663650745e-05,-3.262932820713061e-06,8.898119100289647e-06,5.229122243387234e-05,3.791057077579714e-05,-4.363401895696738e-05,-3.255452057995514e-08,-2.3532546681723647e-05,6
1.5802271144256413e-05,-7.819872212650218e-07,-6.007780546552545e-06,1.8922172729989694e-05,-6.480209889705797e-06,-1.1196683002081298e-06,1.293680003037764e-05,4.614376817969964e-05,8.639056052641594e-05,-4.4231294353149105e-05,-8.641938944344144e-07,-2.303039632553654e-05,6
2.7974283826438647e-05,1.7177478574231556e-05,2.5190694442758654e-06,-3.752121003487256e-05,2.750023533537684e-06,4.206588912491649e-06,2.467357186428093e-05,1.228311958018433e-05,0.00011265610106773425,-3.482701390049359e-05,-2.8338803575554165e-07,-1.6075636295790035e-05,6
3.112581859627533e-05,2.2052783065792285e-05,6.9723192481312415e-06,-7.901756173874645e-05,8.72467153952777e-06,8.205707905524795e-06,3.2023644182542014e-05,-4.576597934043682e-05,0.00010099167197024075,-2.2499992540368914e-05,-5.297204888225162e-07,-6.694886339590894e-06,6
2.315387866582271e-05,8.437285593142677e-06,3.3549440947812582e-06,-0.00010805580507664217,1.0078150192507591e-05,9.234797385256375e-06,2.9047388281907733e-05,-0.00012157234642411381,5.9716190818060065e-05,-6.661690015025308e-06,-7.364707015118628e-07,-1.9454970133408443e-06,6
5.007093884509311e-06,-3.360850098420089e-06,-7.782838981038464e-06,-0.00012045481863241931,8.039783707157612e-06,7.070063830766152e-06,1.2491670987396431e-05,-0.00016696181032113973,1.661844297579565e-05,1.9888247114068076e-05,-5.591011531270423e-07,-1.2321577168822388e-06,6
-2.2942350930798376e-05,9.570612178347958e-07,-1.7174045155947715e-05,-0.00011014769772982265,2.3236775026955176e-06,4.281567886286143e-06,-1.1613836518125548e-05,-0.00012842313901878917,8.272350327803183e-06,4.2810746581984e-05,-3.619216271459859e-07,9.441723123503876e-07,6
-5.446519614491112e-05,5.954951001715298e-06,-1.6846500808253992e-05,-8.005798786789257e-05,-5.466583074522124e-06,1.0779619697062367e-06,-3.3500020091776375e-05,-3.239897560699516e-05,3.75288344727122e-05,4.762874941710837e-05,3.2456729433782615e-07,5.628652256152081e-06,6
-8.025082077324311e-05,1.986610743722583e-06,-1.0600930188734796e-05,-4.114517580265727e-05,-1.1215337775521568e-05,-5.2175699069751845e-06,-4.6212334353637724e-05,4.336999705272333e-05,5.4957676392536154e-05,3.670419680152933e-05,3.5289271770973324e-07,8.94719442257438e-06,6
-8.806628247362875e-05,-6.528816722760703e-06,-8.769578333672397e-06,-4.86206795722293e-06,-1.1924692790436914e-05,-9.710149153147817e-06,-4.397749647093096e-05,6.063694180718052e-05,3.0060766717163744e-05,1.996653401002323e-05,-5.220016223773551e-07,9.922083238412381e-06,6
-7.260772004724118e-05,-1.1463514320831284e-05,-2.0866285820805178e-05,3.140826754137245e-05,-9.384639773795846e-06,-7.414539378013616e-06,-2.9238870292294902e-05,5.06882254525348e-05,-4.8721198876572325e-06,5.5484164363806575e-06,-9.915714554404667e-07,1.0129041584216152e-05,6
-4.167299943715125e-05,2.366250339667782e-06,-3.742731924278203e-05,6.892991295267859e-05,-8.280605640409418e-06,-4.068222467750104e-06,-1.56009428600035e-05,4.827149915279957e-05,-2.595236369683616e-05,-7.894103050738894e-06,-2.2624225848487562e-07,9.43809982865158e-06,6
-1.1158233881112723e-06,3.542376685933681e-05,-3.228384564159525e-05,8.918031325936792e-05,-9.701136971819423e-06,-6.2856321549421615e-06,-1.4868095031235818e-05,4.6020453280591836e-05,-3.7568803920736354e-05,-1.3500410557792085e-05,6.164159525473823e-07,7.907381870227018e-06,6
4.078255668369728e-05,6.234340753216448e-05,-5.334989891440879e-07,8.043283954062434e-05,-1.0198248115912645e-05,-1.2336237684664262e-05,-2.065048325574239e-05,3.721216887290901e-05,-3.913294762925105e-05,-3.420379823218901e-06,-1.3196681071104184e-07,7.193551221923181e-06,6
7.211078887879544e-05,5.939873278771049e-05,3.6508975317495003e-05,5.4601539418597817e-05,-6.268870232069905e-06,-1.452056807628636e-05,-1.776163672332992e-05,2.3730229900708603e-05,-3.665145076751734e-05,8.200057804597893e-06,-6.479403180779426e-07,6.898835669388505e-06,6
9.247192335284014e-05,2.5370199070541473e-05,5.823723274795687e-05,2.7078124819588375e-05,1.4796517153126317e-06,-8.939801492010315e-06,-3.248926909511406e-06,9.516962404951434e-06,-3.455345780047451e-05,1.165923640917396e-05,-7.45706079054577e-08,3.9877419169798485e-06,6
9.784510154000497e-05,-2.020022792699091e-05,5.8892375745639983e-05,4.88331128503074e-06,8.100347653787835e-06,-3.781778421728965e-07,1.6845942330348842e-05,1.1286548983517371e-05,-3.0175272872340658e-05,6.225184837117707e-06,2.8514841445897375e-07,-3.337226411754266e-07,6
6.955200977127958e-05,-5.092751857911482e-05,4.634837444671562e-05,-8.335585172828515e-06,1.0649607388259677e-05,5.9040146683524224e-06,3.2505530720150154e-05,2.5448217621412408e-05,-2.5890793220643925e-05,-2.216751546700714e-06,1.7632223950164699e-06,-2.4343367643832033e-06,6
1.5630098081980256e-05,-5.6702427687440754e-05,3.0992360863421885e-05,-1.134690225979372e-05,1.1276916620462663e-05,9.311566593144828e-06,3.4485225859263264e-05,2.5691066725910864e-05,-2.0572715015985773e-05,9.962944570231063e-06,3.671707341575723e-06,-3.221918765371997e-06,6
-2.0822006643789578e-05,-4.652437682505636e-05,1.815094167311826e-05,-6.637195901472103e-06,1.2601001642186338e-05,1.1079610362362106e-05,2.637935507116947e-05,-1.2053520937442481e-05,-1.794876278742563e-05,4.129870405025225e-05,2.633984714233177e-06,-4.370596852861594e-06,6
-2.4960148087781382e-05,-3.3002294581192366e-05,7.612888597940616e-06,2.4808814062200654e-07,1.5299404382487833e-05,1.2148812387934518e-05,1.6014047758088926e-05,-8.282411560627301e-05,-2.6539605619670462e-05,5.993768267009571e-05,-1.1883096592235217e-07,-6.1360218193744596e-06,6
-1.7977295774708972e-05,-2.7107146069206057e-05,7.860772622458639e-09,2.349052743003325e-06,1.7182327106245904e-05,1.2462264910590577e-05,6.906097109673907e-06,-0.00012264864421369454,-3.73416459387195e-05,5.1883633142793095e-05,-6.043860477340635e-07,-8.020112732244519e-06,6
-1.5768117986818604e-05,-2.888923246681129e-05,-8.438725597768679e-07,-5.671136340077043e-06,1.4139725358931829e-05,1.06641222047233e-05,3.897459349777075e-06,-8.197935390888964e-05,-3.4798068659332046e-05,2.3589287945432184e-05,5.332855992231345e-07,-7.64752686448525e-06,6
-1.7261148963807797e-05,-2.3962564136544315e-05,6.369728258452258e-07,-2.255723894131094e-05,6.754695708116502e-06,7.21297148701252e-06,8.821032488122668e-06,4.3444222258367e-06,-1.8254157103778302e-05,-1.286826108879972e-05,4.701570378021786e-08,-5.24755575730726e-06,6
-1.3748768524745163e-05,-1.1327539545845663e-06,-4.690016697539726e-06,-4.430735730869303e-05,1.3083940981639767e-07,5.395193257574601e-06,1.7956705734240946e-05,6.714439308468701e-05,4.337516707100568e-06,-4.394367349088364e-05,-1.2096778494230553e-06,-3.534462641062883e-06,6
-2.365388113464335e-05,2.4997596451329636e-05,-1.960083941876636e-05,-6.837739526391815e-05,-4.131777942093524e-06,3.1057978816160964e-06,2.3824336720957104e-05,6.87580197119029e-05,2.5685767142266048e-05,-6.200388919878934e-05,-2.0218634046146396e-06,-2.5601162577392534e-06,6
-5.860635519366876e-05,2.5213939491505504e-05,-4.451210111521988e-05,-6.991899385669313e-05,-8.349285024973515e-06,-3.3507849651258184e-06,1.608265760078072e-05,4.588080365858599e-05,4.1065761042582605e-05,-6.98124780097177e-05,-4.077724885865864e-06,-1.2538517800672101e-06,6
-7.13517037140227e-05,6.42037692004886e-06,-6.884789989021988e-05,-1.8276710709502147e-05,-1.3212439934153234e-05,-8.365910506686366e-06,-2.6582875883351446e-06,5.2929621800991685e-05,5.009060466598102e-05,-7.431208925589008e-05,-6.052242363325921e-06,8.597381211324612e-07,6
-3.776213354054306e-05,4.105968010169488e-06,-7.120393163941056e-05,5.911167818479521e-05,-1.5835034050905236e-05,-7.916049742507636e-06,-1.6578980068172607e-05,6.173178401849075e-05,5.2267662948285786e-05,-7.600624097375534e-05,-5.75177368739999e-06,3.142917185594502e-06,6
1.7673759610253514e-06,2.225095128029706e-05,-5.002351344187995e-05,0.00010435252752091238,-1.2949118006238996e-05,-5.599642050967645e-06,-2.3046002765847527e-05,2.329231404373815e-05,4.8966088674363044e-05,-6.621948498272624e-05,-3.7900248195323374e-06,3.843118609247441e-06,6
1.7300231492039005e-05,3.813234290898762e-05,-1.9575206196652416e-05,0.00010608994852319401,-7.164606628287078e-06,-4.243347548176814e-06,-3.013871295083369e-05,-3.441868606030082e-05,4.670284719553159e-05,-3.6631143766008886e-05,-2.301863672203371e-07,3.8986312448066215e-06,6
1.7211060152854674e-05,4.479459743007e-05,1.3847950475516518e-05,8.735686968315905e-05,-4.496588617935974e-06,-5.02670211565501e-06,-3.623088088762349e-05,-5.316024771126147e-05,4.520409138071442e-05,1.3331682516417006e-06,3.414362037809843e-06,4.9296502690743885e-06,6
2.057325192433372e-05,4.896904728031142e-05,3.98812668859862e-05,5.888817236072805e-05,-5.095391520638417e-06,-6.577143567331785e-06,-3.5544905150815076e-05,-2.8503290234055862e-05,4.245565962744141e-05,2.0158151841683313e-05,5.1622791397067706e-06,5.323088217199683e-06,6
3.3303284192411496e-05,4.9433567644587516e-05,4.732427486167847e-05,2.4290579560556745e-05,-5.646896466054038e-06,-7.489077118881026e-06,-2.8194344847032418e-05,6.715478999401209e-07,3.979431927213349e-05,1.3687785733857984e-05,5.641344719451405e-06,3.780647876991575e-06,6
4.7950683639237146e-05,3.9150237198704556e-05,4.265304607664778e-05,-1.0212044209023688e-05,-4.537081059836298e-06,-8.123285632187266e-06,-1.5902228503285058e-05,6.040280581722784e-06,1.9282855039653605e-05,1.407680555915668e-05,5.59362297874584e-06,1.3589080071596972e-06,6
5.564070444184765e-05,9.390978390336328e-06,3.555467458924692e-05,-4.9681978993884557e-05,-1.0500268824144892e-06,-6.924238524817186e-06,2.9505443602226874e-07,-1.5767842182129167e-05,-3.4453654520076006e-05,4.606985633711653e-05,5.504302604258602e-06,-3.3034141907406545e-07,6
5.060680988470853e-05,-3.9516827575437804e-05,2.91036690115674e-05,-9.447849676806222e-05,3.2684258434862166e-06,-3.9818210155776776e-06,1.6357521805643636e-05,-4.307626505980009e-05,-9.154403876932007e-05,8.569169124822172e-05,4.268845518288221e-06,-1.4044474478249448e-06,6
3.56698624959727e-05,-7.952072033735392e-05,2.6542510760878535e-05,-0.00011335498503292083,6.6676078040031495e-06,-5.0312843629981146e-08,2.8953707366167403e-05,-5.5813431680700594e-05,-0.00011323614612881349,0.000100083904992175,1.4309245791687476e-06,-2.7173690997986532e-06,6
1.837091470934802e-05,-8.561584806571387e-05,2.3438763566097935e-05,-8.06311312071488e-05,8.982702714067707e-06,4.77555409403279e-06,3.578517041121155e-05,-5.397888767066195e-05,-0.00010005774810706742,8.923518790695769e-05,-1.4264013658467521e-06,-2.4593813236221015e-06,6
4.178911808122305e-07,-6.841728200700613e-05,9.384852187373769e-06,-4.567594025013827e-05,9.2336768459442e-06,7.649524141633788e-06,3.372643067415934e-05,-3.0078937099239815e-05,-7.073649060318223e-05,6.90900535328322e-05,-3.7116402767202077e-06,2.805290685008921e-07,6
-1.98538147671948e-05,-4.455172498109762e-05,-1.0455630282864072e-05,-6.964037278670289e-05,7.576299944828457e-06,7.522911834329795e-06,2.6431512546962864e-05,1.0590617736813198e-05,-3.25773660431814e-05,4.993100392153211e-05,-3.7811984186464495e-06,2.688641160551265e-06,6
-3.823989493782244e-05,-1.3495700849539933e-05,-2.0028034173770247e-05,-9.79342512216587e-05,5.733241484215195e-06,6.0606764871666505e-06,1.7186594233788377e-05,3.9647928351325875e-05,1.0454274023618536e-05,3.028094121405067e-05,-2.1649897006567202e-06,3.0980149474263027e-06,6
-4.924671410667794e-05,1.953467545541943e-05,-2.1601943922484123e-05,-4.6041066708741506e-05,4.253625813087839e-06,5.2475715666775314e-06,1.042446695729577e-06,5.002910564524472e-05,4.405611475580111e-05,5.7149098214319776e-06,-1.8916650169854635e-06,2.5774939065450157e-06,6
-5.640813621557844e-05,3.530715923680002e-05,-3.251713204279123e-05,5.925865980639272e-05,2.376667844422917e-06,5.8760389945290415e-06,-2.4520899246307106e-05,5.149072774101441e-05,5.425648991104361e-05,-1.8658753409289644e-05,-2.971681764040725e-06,1.1073548573182602e-06,6
-6.516195699057363e-05,3.817553637944716e-05,-5.177006807869768e-05,0.00013046577132373662,-1.2164322518638547e-06,4.878203924962261e-06,-4.921467940183247e-05,4.2446922357198065e-05,4.496163894182863e-05,-3.944747423478791e-05,-3.1450445550201974e-06,-2.143146648276407e-06,6
-7.968699305977163e-05,5.076972233868108e-05,-5.90645215721847e-05,0.00012804416138241,-6.293399216764432e-06,1.3797965072806977e-06,-5.550400622018802e-05,9.862614337149209e-06,2.978175229637322e-05,-6.437623759088388e-05,-4.889933656183005e-07,-5.125962819730279e-06,6
-9.311243117377455e-05,5.941324216080117e-05,-4.434648146048524e-05,0.00010043610249937722,-8.752175378951355e-06,-8.631474473453149e-07,-4.093365233263579e-05,-3.548751851042491e-05,2.1038984581353348e-05,-8.968478768758512e-05,1.2966808332150829e-06,-6.252338770895358e-06,6
-7.336701850963201e-05,4.657070789535694e-05,-1.0611963475474108e-05,8.870292698891374e-05,-4.301084095370377e-06,4.7669116762259596e-07,-1.588000536553574e-05,-6.01632757279184e-05,2.996320849591403e-05,-9.715820542076504e-05,-1.0632225118499286e-06,-6.783900759406545e-06,6
-9.448782961131976e-06,3.546960786927724e-05,3.266789632282538e-05,2.7392202203941617e-05,3.073506634915278e-06,4.413786586787817e-06,1.275942816318793e-05,-6.440479701208802e-05,4.5994576654682874e-05,-8.505331497234389e-05,-2.4119206019094388e-06,-6.183442947879765e-06,6
6.0680235145692084e-05,2.6998140002828024e-05,6.23195361640409e-05,-0.00011291255921064161,5.001301301831653e-06,6.029117799093728e-06,3.6874975162473794e-05,-4.96786485402545e-05,4.51162267107167e-05,-6.575453152060498e-05,-5.275358418452276e-08,-4.653819261454121e-06,6
0.0001021921887206424,-1.6350242941803492e-05,6.0814988188381205e-05,-0.00020795790476873944,2.014286611463589e-06,3.017839331931144e-06,4.9839014299289856e-05,7.568776745020072e-07,2.884783118397881e-05,-4.870178995344702e-05,2.6125152952734113e-06,-4.299389722033088e-06,6
0.00010671363336705563,-8.892269510142791e-05,3.905995736960436e-05,-0.00016433857149943308,1.9849697486962024e-07,6.728853656958165e-07,5.247551197420927e-05,6.013374953213966e-05,7.086444499947971e-06,-3.9711032026165485e-05,3.452002173392037e-06,-2.455672084038382e-06,6
8.613687242602939e-05,-0.0001244804741891976,1.893496631607662e-05,-3.919920069333707e-05,8.430236812885354e-07,-2.4097826844470463e-07,4.888673285986797e-05,9.025471161415913e-05,-1.8553854286445305e-05,-3.441816813276e-05,3.265779402935607e-06,2.814469721893545e-06,6
6.548613407221549e-05,-8.299046307104866e-05,1.036562279949698e-05,8.905947753661893e-05,1.5723541943373923e-06,-3.5751583458024706e-06,4.157956291178323e-05,8.940814696272404e-05,-4.3240270112854406e-05,-1.896374701709165e-05,3.144238848360199e-06,6.546460572313598e-06,6
5.21830546545836e-05,-1.5781740713305755e-05,7.288605234196304e-06,0.00017703766317864794,3.3456250730858785e-07,-7.4120079372491e-06,3.231472429821299e-05,7.752696528183655e-05,-6.617147993406051e-05,1.8814040854299395e-05,2.113927703016271e-06,6.5603765913492285e-06,6
3.692662291254936e-05,9.888891810041353e-06,-3.303631186999379e-06,0.00019301798222039212,-3.3516838573219037e-06,-1.0849795690508621e-05,2.491973341262453e-05,7.026468754397018e-05,-7.776020497441311e-05,7.176681445132832e-05,1.0314923703127574e-07,6.121297396795367e-06,6
2.257210481525592e-05,1.1910986519526459e-05,-1.9619408410511867e-05,0.00015880895408575233,-7.151829494702092e-06,-1.3909987062066497e-05,1.8050001488504668e-05,4.7887624569615045e-05,-6.186019062791331e-05,0.00010875270536769641,-9.313389756962217e-07,6.590090307306141e-06,6
3.3099514791415614e-05,4.0193235826084036e-05,-2.422268383946172e-05,0.00012356713167191154,-5.346389066599004e-06,-1.2294467256488766e-05,3.285909936939528e-06,3.230682816069958e-06,-2.938768685016258e-05,0.0001057105846791493,3.766511604369312e-08,7.3207044500112205e-06,6
7.009281084397935e-05,8.566102151393216e-05,-1.6750536507815293e-05,9.223084636180553e-05,3.0208469449944776e-06,-6.995517758591914e-06,-2.792756395001098e-05,-2.6638893543674258e-05,-5.5811927640920755e-06,8.248584466376541e-05,1.2936082374270506e-06,6.8701211811017525e-06,6
7.541212528047313e-05,0.000102202673796221,-1.4844279173153486e-05,4.576483765710886e-05,9.043974687528236e-06,-3.2822784976072364e-06,-7.071805980197823e-05,-3.9297255924817613e-05,5.023609422320455e-06,8.863897969055051e-05,-5.6535686102179566e-08,4.699736660855619e-06,6
1.849765013429907e-05,6.691884068453789e-05,-2.14219553757107e-05,-1.346734367277362e-05,6.616212547194771e-06,-1.4673896015622198e-07,-0.00010194195330582974,-5.512863426334717e-05,1.4634383692946013e-05,0.0001254913523743793,-2.6920714121939927e-06,2.6006890212096735e-06,6
-7.130843052218206e-05,-3.178215558658997e-06,-2.721730843156314e-05,-7.919019013470676e-05,-2.4904376605982023e-07,4.6326662883759516e-06,-0.00010895454762376442,-5.916688631537952e-05,2.6506781258664824e-05,0.0001295235812216732,-3.4657597246692297e-06,4.924861016852641e-07,6
-0.00018695938676716574,-7.187443906878079e-05,-2.6615881744594018e-05,-0.00017624705215574585,-5.46421434113602e-06,6.770032270611201e-06,-0.00010031658787462195,-5.86856382978257e-05,3.523751142045524e-05,6.457906579191702e-05,-2.9932254998090984e-06,-2.0453445533260584e-06,6
-0.00028854047320831124,-0.00010688062283355632,-1.537079462367749e-05,-0.0003047968049712099,-7.67919043831394e-06,3.8013674195545103e-06,-7.886934614212642e-05,-8.01415828317397e-05,4.268716396176086e-05,-3.313136152735969e-05,-3.1911163879494283e-06,-4.318608989563507e-06,6
-0.0002759588876980521,-8.861895606760048e-05,4.432288765011849e-06,-0.0003634611640253071,-7.5036887040234725e-06,4.929440291546819e-07,-4.250445826581099e-05,-9.738757673539225e-05,5.578546010679388e-05,-0.00010970629572890268,-4.475167132232025e-06,-7.5468683811566385e-06,6
-0.00013702974473786696,-2.7240879070926115e-05,2.303923198861236e-05,-0.000251069108893787,-4.845982285901428e-06,-3.814030537664759e-08,-3.277961522444438e-06,-7.969287510364455e-05,7.270341351578475e-05,-0.00014623887169427512,-4.642317012882979e-06,-1.2207808857391176e-05,6
3.0101078756373515e-05,3.26595611230135e-05,3.256722869924362e-05,7.347259871117762e-07,-3.5282682326061975e-06,1.527808098855252e-06,2.8527664470804747e-05,-4.584015688577552e-05,7.09332729465808e-05,-0.00015209684073743093,-2.2687771822827335e-06,-1.6467663690701728e-05,6
0.00013852831237163535,5.869668188651368e-05,3.2218971331397946e-05,0.0002493984925975969,-3.822203842040509e-06,4.130995080712657e-06,5.831656551309045e-05,-2.9146741460872424e-05,2.6220131395751853e-05,-0.00014133586446960877,-4.7659938230547407e-07,-1.44524479736701e-05,6
0.0001648442254192981,6.460984118445588e-05,2.9547770374789883e-05,0.00030201672213877684,1.4583562006127536e-06,7.0370275062430554e-06,8.995895694722824e-05,-4.699681212696516e-05,-4.935276285631997e-05,-0.00012054151356156729,8.793746270097674e-08,-1.5552791348276317e-06,6
0.00013387195601858356,7.121960019968757e-05,3.017814211600205e-05,8.764156448848629e-05,9.810015733460646e-06,1.0044721889850232e-05,0.00011572941318225262,-6.622684963586127e-05,-0.00010594794914316396,-8.050099596595307e-05,2.8135269347188548e-06,1.4349514835254197e-05,6
8.98746207235861e-05,6.984227855902925e-05,2.664226434526974e-05,-0.00017822274849373638,1.1213849448198802e-05,1.1169348904849705e-05,0.00012268112384958478,-1.9856891922792162e-05,-0.0001026689809706962,-2.5195653787008833e-05,6.112038798711529e-06,2.225731151600459e-05,6
6.042797161877118e-05,4.2477942933842315e-05,9.857206978219436e-06,-0.0002060141128397101,5.496533578463336e-06,1.0571581542184853e-05,0.00011120418963500844,8.371361369658044e-05,-5.2807353445197796e-05,1.182069218053683e-05,6.554355741082008e-06,1.8461575516163055e-05,6
4.136074352230757e-05,-9.2988726560233e-06,-1.4919601365008833e-05,1.867126597820696e-05,-1.5882229153960587e-07,1.0000840614934092e-05,9.370915820502045e-05,0.00016231411227833758,5.551555774573617e-06,2.2136032425274515e-05,5.993569680197142e-06,5.8534014221327114e-06,6
2.049421254245509e-05,-6.024070874517309e-05,-3.109889498674035e-05,0.00022287166083236677,-2.1905044961772406e-06,6.31827355142356e-06,6.584705394062575e-05,0.0001724287520139097,5.262459953989887e-05,3.606324963643606e-05,5.420891611010292e-06,-5.484042793885613e-06,6
-2.404319038671707e-06,-8.106007317682567e-05,-3.159286693078302e-05,0.00019162755105530708,-2.7616693656192623e-06,-6.398288722170104e-08,1.692886918523277e-05,0.00013854173286264435,6.602900499609451e-05,6.21501754321875e-05,3.9979181464610585e-06,-9.68170132344537e-06,6
-2.09506231578483e-05,-6.186650169032366e-05,-3.2780969265602975e-05,2.5824907335595e-05,-3.4699396608439047e-06,-4.724109372125857e-06,-4.473307651840434e-05,0.0001066936773708513,3.107380814306521e-05,8.056138280624645e-05,3.2521542522468386e-06,-1.0153820742467793e-05,6
-2.4919258396089908e-05,-2.472839500878683e-05,-4.4607132124712675e-05,-4.575776432010718e-05,-1.2265369773424412e-06,-7.284285852511e-06,-9.655418237580306e-05,7.414110046061869e-05,-2.05935831028286e-05,8.523579028570825e-05,2.3723413179241773e-06,-9.409314388744941e-06,6
-6.70651356646988e-06,-6.378007149596784e-06,-4.639367489978104e-05,1.2522320292633802e-05,5.463536578548216e-06,-6.85780075816675e-06,-0.00011740390092937625,1.9536544999683963e-05,-4.139776281121896e-05,8.153202719732919e-05,3.8412787039721275e-07,-7.727880789612194e-06,6
2.1976316764735235e-05,-1.1893170835713542e-05,-2.705523553830238e-05,6.34722842531636e-05,9.88595338766118e-06,-4.9630502039988685e-06,-0.00010995206266637363,-6.139672103631813e-06,-1.733940105841041e-05,6.609827156627579e-05,-1.1582816667133798e-06,-4.935002206045388e-06,6
3.1370432797912485e-05,-2.1469068246172592e-05,-3.4367509737696715e-06,4.858534298407479e-05,5.891040704756701e-06,-6.434059201817984e-06,-9.170517470608462e-05,9.758307304692205e-06,2.723580574867252e-05,3.773484853153323e-05,-3.0744659314596472e-06,-5.89114258260926e-07,6
5.753813973655376e-06,-2.6821773532811636e-05,1.566986835666936e-05,3.531244459588841e-05,-2.0908829435946068e-06,-1.092293842942343e-05,-6.465092593761156e-05,3.773697552049047e-06,5.6972500757096334e-05,7.0403797175772525e-06,-4.6110532195271505e-06,3.652133561961176e-06,6
-3.666321330631855e-05,-1.996214613937327e-05,3.3872973396485286e-05,6.927516220546446e-05,-6.6087253906468485e-06,-1.5371913424481003e-05,-2.3089546708751846e-05,3.00176648940494e-06,5.9134367816522337e-05,-1.713702599959013e-05,-4.7294717908478645e-06,4.22939762903952e-06,6
-6.586968178034429e-05,2.137179136181588e-06,4.914656184478697e-05,0.00011781108564785133,-6.330992649232098e-06,-1.6760959990463434e-05,2.2769832155829313e-05,2.8187282893137385e-05,4.291591216841075e-05,-2.937735195088445e-05,-6.028599634557502e-06,1.5693086530286713e-06,6
-6.013549289063513e-05,2.1669993375733944e-05,5.256715471969214e-05,0.00011259110175848512,-3.5652493571716347e-06,-1.1923523332179222e-05,4.979266295246552e-05,-3.520009128667404e-05,2.1320390933053583e-06,-2.7006785771459532e-05,-6.550880355974836e-06,1.4195048194084426e-06,6
-2.5853150353435985e-05,2.603163387186723e-05,3.769575272450448e-05,3.174298859014949e-05,1.1608350884923923e-06,-1.5618295224052042e-06,4.953505974391914e-05,-0.00020697535174281522,-7.354302125748457e-05,-1.8593809755667013e-05,-4.020205730384542e-06,4.222980312768927e-06,6
-4.471343818397373e-06,2.3148229459911415e-05,1.4123950034648829e-05,-5.643247813294886e-05,6.358749946493271e-06,8.089318406854146e-06,3.6538892231035055e-05,-0.00030357381158484665,-0.00014305722743153938,-5.977322535494583e-06,-2.382142892540757e-06,5.48351667702487e-06,6
-9.543166124178765e-06,2.0606094156955886e-05,-4.074787415263722e-06,-0.00010934297280004864,7.716543186844395e-06,1.1643826186941531e-05,2.570561025152795e-05,-0.00020014525084632718,-0.0001469323007973132,1.661468290461738e-05,-2.4270221360349122e-06,4.235358915067121e-06,6
4.604535033845114e-06,2.2607580641379476e-05,-1.2122047273056929e-05,-0.00017488218315556283,4.590698169506967e-06,1.1138943256976268e-05,1.726652070471737e-05,6.379438343877114e-07,-8.839023657833872e-05,3.291780052787565e-05,-1.2128716071225948e-06,9.338644259632866e-07,6
6.135147888776579e-05,3.88161793495716e-05,-8.389311473957544e-06,-0.00024828906043027445,-1.139395691764358e-06,8.4565330535563e-06,2.9362611439597674e-06,0.00012798356252759495,-1.00391227355178e-05,1.861086536127062e-05,1.4957995229614513e-06,-1.6908546956951678e-06,6
8.854976513503666e-05,4.914519099278003e-05,-3.831975369830695e-06,-0.00027391095258428206,-8.42976805303317e-06,9.423970435549743e-07,-1.5902805341929826e-05,0.00012119335764292273,6.313848383886233e-05,-1.7999942145114506e-05,3.0361013034676357e-06,-3.3777170879048126e-08,6
3.4184886582573427e-06,2.7204088056322676e-05,-1.2570465801073616e-05,-0.0002625438038858072,-1.4651343015762508e-05,-9.198706379604917e-06,-3.144439785849656e-05,2.179340563541788e-05,0.00010283202023998298,-4.344528788559036e-05,1.1074802538524879e-06,3.80604627184287e-06,6
-0.00012579251325010247,8.201548811369947e-06,-2.4508104021361515e-05,-0.000198582287779369,-1.6351033595334e-05,-1.3417244591695903e-05,-3.833765864847635e-05,-8.770749922044355e-05,8.942988169838074e-05,-4.4782998415299233e-05,-1.0926581669199644e-06,6.374387991311277e-06,6
-0.00015563369877021375,1.7403751105369733e-05,-2.252591774950151e-05,-3.311231018828325e-05,-1.2064414123892617e-05,-6.793469049090915e-06,-2.719507336328324e-05,-0.00012897031116943566,6.109116484188286e-05,-3.7196805098046527e-05,1.6010924833496253e-07,6.692029984169296e-06,6
-7.81342827897663e-05,1.425410734762184e-05,-8.096344204679843e-06,0.00017422121154918644,-4.509689270824722e-06,5.408251534430452e-06,-7.351964920229289e-06,-8.385619866480827e-05,5.7091543479654e-05,-3.0223689234765132e-05,2.651184960025178e-06,3.809439127307129e-06,6
2.2121972690967356e-05,-2.2496521561317057e-05,3.2729305084911484e-06,0.00029943137435867325,2.859826452293948e-06,1.4525460737254354e-05,-4.766076217614115e-06,-8.859084222667988e-06,6.47349979258018e-05,-1.5250683434296106e-05,4.198353453539552e-06,-1.5905423079905456e-06,6
9.705646899843252e-05,-6.043348637594548e-05,2.6317191508319134e-06,0.0002872977201943004,8.454484038894961e-06,1.6446329543585818e-05,-1.3051542564779821e-05,4.126682970075398e-05,6.018807571105304e-05,6.335921700465611e-06,4.3430204579693426e-06,-5.8623810586403074e-06,6
0.00012906252468776718,-6.840363269493337e-05,-6.20389160397779e-07,0.00019225959515345334,9.925524688594727e-06,1.1600723856291184e-05,-4.455047284061014e-06,7.641644281105714e-05,3.2001517861967536e-05,9.531753143175298e-06,3.210303495264522e-06,-7.455409484713748e-06,6
0.00011624495210927751,-5.3639432638887185e-05,2.425339515727142e-06,0.00010300274319482919,7.68553871050431e-06,5.7530278705940576e-06,2.007245701164686e-05,0.00012024606774705706,-9.246793439243131e-06,-1.980912440960972e-05,3.266939946327663e-06,-1.0275563972815843e-05,6
6.885839413793663e-05,-3.332887437662164e-05,1.127964497416036e-05,5.136344691699131e-05,6.21686820908005e-06,3.5833658406854636e-06,3.7009057012784024e-05,0.00015860072886092984,-3.4452433552170356e-05,-6.544995242351773e-05,3.942015079839519e-06,-1.4772679126230323e-05,6
1.0060798321313361e-05,-9.3909824323567e-06,2.269657806056268e-05,2.8517605381980438e-05,7.645295767870768e-06,1.824885311378793e-06,3.9031077263717254e-05,0.0001713049166629147,-3.6150210625634654e-05,-8.046808321779552e-05,2.467329923717882e-06,-1.2258160394565802e-05,6
-3.0246710458397484e-05,5.772591583854816e-06,2.157282078731772e-05,1.4823577358098657e-05,8.859864887382527e-06,-1.734995988631068e-06,3.637608075071813e-05,0.00016555294179712858,-3.0582483861402984e-05,-2.2980665940427687e-05,6.199880037155243e-07,6.791850850503572e-07,6
-3.0134149699509245e-05,4.733595122233029e-06,-1.0731161305634546e-06,-2.104010071428919e-06,7.377546294252725e-06,-3.6321172249833973e-06,3.759218009587989e-05,0.00015655300993450843,-3.771761956751099e-05,6.478928640091266e-05,1.6013803781781907e-07,1.2767020844919357e-05,6
2.3836346620276644e-05,1.2029909148020508e-05,-2.3129199431867757e-05,-4.244324734013043e-06,5.913549670225876e-06,-1.922783535263397e-06,4.786784821915353e-05,0.00011868261423583381,-7.082290306022943e-05,0.00010097350376755446,1.5543660540204142e-07,1.4960006654876088e-05,6
7.842082977455951e-05,3.974315157514899e-05,-2.508178106932704e-05,6.343863447587504e-06,5.040327015441366e-06,1.1861943356833634e-06,6.129723149989318e-05,8.493158096060354e-06,-0.00011116229070099034,7.463037568664085e-05,-1.1755644943944126e-07,1.1923517775161816e-05,6
4.031567037420658e-05,5.641580761467232e-05,-1.824285978468279e-05,-8.257328426384212e-06,1.7166731501977286e-06,1.901374023261445e-06,5.68713646051551e-05,-0.00011461277154530114,-0.00011962789980994525,2.75366852623324e-05,-1.6272836958343288e-06,8.036493943452667e-06,6
-7.530186696542759e-05,3.722443494785716e-05,-1.4052052266509409e-05,-5.559195655396995e-05,-3.2822312641420296e-06,-6.690781509873736e-07,2.583419217564614e-05,-0.00012857584382746945,-7.827828043717916e-05,-1.1428386482635398e-05,-3.666099800297468e-06,3.375343639653359e-06,6
-0.00016178348105198016,1.3549095323019201e-05,-6.905039408650095e-06,-0.00011080534118079131,-7.946732816277622e-06,-3.998189507233965e-06,-8.341876577927432e-06,-6.54683454973874e-05,6.681282658659907e-07,-3.619143534234971e-05,-5.39564420612099e-06,8.912796585805538e-07,6
-0.00016474248182134343,2.2379166384531614e-05,3.3340440781266778e-06,-0.00014469065218349268,-1.2613143622853959e-05,-6.683976716381547e-06,-2.360208572457559e-05,-6.344946653322734e-05,7.860660597791235e-05,-3.457545171368037e-05,-6.5205884331414974e-06,6.567667596921661e-07,6
-0.00011034234683444743,3.688001401801221e-05,1.075041791455486e-05,-0.00013044419069549513,-1.55177597990476e-05,-6.983463919663541e-06,-3.4877817333232993e-05,-0.0001221418606185014,0.00011500464774952815,4.7927456825476485e-06,-4.607857578304488e-06,-3.516489469533983e-07,6
-2.7645413017090557e-05,1.2198305407046813e-05,1.7881964994772553e-05,-7.139185449667678e-05,-1.1624800809998808e-05,-4.1644925556726686e-06,-6.099677854666445e-05,-0.00014746439570822583,0.00010662375556688739,5.442795316453322e-05,-1.0937963702769033e-06,-7.402635959197154e-06,6
6.120968809825682e-05,-3.980535624937849e-05,2.4875040909951345e-05,3.157736824252332e-06,-1.4933798224260964e-06,-2.7129425205107727e-06,-9.277042126927468e-05,-0.00013243330324099557,7.59804860838158e-05,7.87501591493917e-05,1.2849974302598383e-06,-2.4573486821662182e-05,6
9.968694384814316e-05,-7.267877976905797e-05,2.3741664688849495e-05,5.6204207690030083e-05,5.6766962524743755e-06,-4.259440317997815e-06,-0.00011122346243156062,-0.00011721758147763769,4.587947449939634e-05,7.100854941496458e-05,2.5287219671011537e-06,-4.020893586232717e-05,6
6.986379220550018e-05,-6.776558452622867e-05,1.2095282296998418e-05,4.392081800182583e-05,5.293502304902116e-06,-6.75504865052727e-06,-0.00010152325553274219,-0.00010732319652007727,3.332822097316241e-05,3.8973503882687346e-05,4.824647461988548e-07,-4.161388522529451e-05,6
3.252932692133599e-05,-4.5312534099891365e-05,-2.3774956892253222e-06,-2.496881304358406e-05,1.6464754864012912e-06,-1.048627613369547e-05,-6.258275924450664e-05,-9.452023084109176e-05,2.9230834736825217e-05,-1.2363826585331252e-06,-2.4671462806043294e-06,-2.8741427513214887e-05,6
3.1066792484431916e-05,-2.729165772289317e-05,-1.182104628428362e-05,-6.502698210477704e-05,-1.4794219729700766e-06,-1.1546422697984392e-05,-1.168279867336351e-05,-4.8096841898499695e-05,1.304267183537893e-05,-3.397878963254531e-05,-2.3213458563981347e-06,-2.157801204795402e-06,6
5.130311661572935e-05,-1.405234899159471e-05,-1.7031574480275572e-05,-2.1791703309878884e-05,-2.2381839463245153e-06,-5.239811467217189e-06,3.277949528604398e-05,5.49109141502931e-05,-1.3940761309325718e-05,-5.132765755000115e-05,-1.3616756051437798e-06,2.8319769091845e-05,6
5.710049560147045e-05,-3.5177282360317804e-07,-2.0552307433338148e-05,6.327142110614079e-05,1.9936591680501416e-07,4.807912959188195e-06,6.07054562304138e-05,0.00015847586365091542,-4.388824671734887e-05,-4.97609217632402e-05,7.485986970371073e-07,4.8782448306340186e-05,6
2.692932415628733e-05,1.1111139315396853e-05,-1.589040940002876e-05,0.00011361652390689004,4.004253125060925e-06,1.2861175491359682e-05,6.720378748566618e-05,0.00019558047325198035,-7.124808845261748e-05,-3.86327227088854e-05,4.243011991007077e-06,5.875503663749865e-05,6
-3.0550592783201876e-05,1.731281738160925e-05,-3.2404486935841976e-06,9.986449182494353e-05,6.531251028952194e-06,1.5172632197572073e-05,5.509455579415682e-05,0.00017064822697181192,-8.861847966438872e-05,-2.9760610992823464e-05,4.850184782725794e-06,5.5957477957161885e-05,6
-9.41930541946884e-05,2.306590192747374e-05,-3.7222277924540695e-06,3.260467352105322e-05,5.043646298876124e-06,1.1656403224747506e-05,3.7118067921882514e-05,0.00011142298819365709,-8.965866310442815e-05,-2.721738893887862e-05,3.0845703551993854e-06,3.7419456626162624e-05,6
-0.00012556224105889514,3.888180425126697e-05,-2.0789385403780335e-05,-0.0001019214045967195,-1.542198792761248e-06,6.0738314271671365e-06,2.5414577745652197e-05,3.000126267989475e-05,-6.579770832998346e-05,-3.605142919280141e-05,2.7174648313884402e-06,1.5272836602908307e-05,6
-7.724864188624631e-05,6.746532297642969e-05,-2.210339317119226e-05,-0.0002479737999188808,-8.74420091860185e-06,3.8423756182688187e-07,1.728608320196467e-05,-3.8270151548277296e-05,-2.407001099650419e-05,-4.1923171692039734e-05,3.2049435912290054e-06,3.414121917731314e-06,6
3.608066572354298e-05,9.020691781022559e-05,2.4986640820454033e-06,-0.00024119197055741815,-9.69000296477507e-06,-3.2438246147399433e-06,4.086984880000673e-06,-5.600561519470535e-05,1.525186873178744e-05,-1.7074572781079117e-05,2.098052145621054e-06,-1.3939581460172241e-08,6
0.00012296055842842023,6.950637509850003e-05,2.794772733780602e-05,-5.8019458200711844e-05,-3.6897446284583762e-06,-3.700990639291819e-06,-8.661031812131506e-06,-5.267891897218212e-05,4.647299973419427e-05,2.7046045351699526e-05,-5.193006970145124e-07,-8.19141894209412e-06,6
0.00011628300387999328,-9.744852189351377e-06,4.2803201763592436e-05,0.00014192411772464192,4.311444715286649e-06,-2.2827130432388097e-06,-1.0505133019456027e-05,-5.308521237614457e-05,6.29148570477173e-05,5.286917294536257e-05,-2.5969223328813486e-06,-2.4446432951418273e-05,6
5.1886659107935105e-05,-8.61427915925974e-05,4.79205955923375e-05,0.00025856447261877514,1.1207013907116122e-05,1.695225315694648e-06,-5.424372095672483e-06,-2.972533851096249e-05,5.133560034502213e-05,4.6578636573208303e-05,-2.525010480604396e-06,-3.8022506638069466e-05,6
2.238939622924229e-06,-8.008036073212433e-05,3.6737073773461004e-05,0.000295162703929305,1.41284353718263e-05,4.292234124953609e-06,-1.994580784893369e-06,2.2026222209377167e-06,2.7677251711874e-05,1.7817403414633888e-05,-1.437110831435115e-06,-4.352841022141041e-05,6
-1.96800563879934e-05,-1.491217086559705e-05,4.7680647232688205e-06,0.0002795228769053144,8.871027171112952e-06,9.68362245429476e-07,1.0929941989343249e-06,1.5330444791997942e-05,1.9868744753433952e-05,-9.272029687305716e-06,-1.2202716897631867e-06,-4.476047627132072e-05,6
-3.288316352253372e-05,2.7603980222159575e-05,-4.100178912296086e-05,0.0002656627402251605,-3.3186740071202714e-06,-2.7111999755030114e-06,7.553184436619025e-06,3.125727394477204e-05,3.1051281418079105e-05,-1.4203121045042092e-05,-1.2730238654911842e-06,-4.3061605501464906e-05,6
-3.589865634248441e-05,2.9584178299358662e-05,-7.492963740717259e-05,0.0002677907498975257,-1.290539365044881e-05,-1.1600715495247013e-06,1.4708453449551483e-05,5.510752299589897e-05,5.583013561103035e-05,-1.0483604663764406e-05,-1.1587703268785322e-06,-3.751896626604176e-05,6
-3.179972023176171e-05,1.5531764570717194e-05,-7.336309402134656e-05,0.0001943755479876673,-1.04864307950482e-05,1.7545204438085593e-06,1.798307879957888e-05,7.036497581014262e-05,7.374896578638993e-05,-1.7943090377676464e-05,-1.085990533434296e-06,-3.215046144084905e-05,6
-3.768170643101443e-05,-1.0170777164561691e-05,-4.272062779241715e-05,-1.2554086235844768e-05,4.6209809385629796e-07,1.0732146976014103e-06,1.6787320937090797e-05,6.879197169162934e-05,5.7422521820775196e-05,-3.095707005986416e-05,-8.260561506902101e-07,-2.7436710367080303e-05,6
-4.6976913769671175e-05,-4.529220508124969e-05,1.5273019312255463e-06,-0.00027563232388181014,8.487891084401103e-06,1.666235104119214e-07,1.428407514630657e-05,4.56692520329061e-05,1.1913189196554503e-05,-3.3185310620877735e-05,-2.9342678683859236e-07,-1.2442900717188687e-05,6
-4.242783834035771e-05,-6.320032774386706e-05,5.113548542650008e-05,-0.0004969179170994781,7.811471947274413e-06,8.920058154644128e-07,1.066175256691554e-05,1.2142289783767252e-05,-5.474493531480193e-05,-1.3776838754138067e-05,1.0194428488538356e-06,1.8338289880925402e-05,6
-2.5822231417101185e-05,-4.262524015058673e-05,9.395207947213667e-05,-0.0006187166173730893,1.0221350119913144e-06,-6.319885622153904e-07,1.386264356133559e-06,-1.3973775785737828e-05,-0.00012556649173981678,2.3097043093849993e-06,1.2646813929158885e-06,5.426540405861248e-05,6
9.364430577469516e-06,-5.147513905166796e-06,0.00011379309643703182,-0.0005770799380347182,-1.9025257529962956e-06,-4.729327270509916e-07,-1.0651418187105421e-05,-2.790856601413745e-05,-0.000153628409960848,-9.077138331615907e-06,-2.925581901889097e-07,7.72808987109925e-05,6
5.596661306121288e-05,1.3845401775716702e-05,9.806444103935181e-05,-0.0003396123149162452,3.0101231956885156e-06,3.6226075638131553e-06,-2.0532621050885028e-05,-4.5432097609636175e-05,-0.00012974358237186604,-6.852464936210039e-06,-7.715809416242535e-08,7.53847510703381e-05,6
6.484129424378563e-05,5.173317260890924e-06,5.113416863438134e-05,8.608350449121111e-06,4.535266479741588e-06,3.064060545952339e-06,-3.2535177283003625e-05,-8.40756075701196e-05,-7.901367277961197e-05,2.524519658132982e-05,9.905883613140304e-07,5.437125564127693e-05,6
3.348708132873556e-05,-1.8809279704621483e-05,-5.624358910860096e-06,0.0003103204457778064,-3.841021260517227e-06,-2.495569160438004e-06,-4.210354428572309e-05,-0.00011913628386289417,-9.966860685129736e-06,4.8706614537298346e-05,6.028867329728377e-07,2.9678308381320726e-05,6
2.1233645263804077e-05,-2.8123985652119352e-05,-4.9306759184598615e-05,0.0004306982970861806,-1.1283858502192188e-05,-6.1621296805437265e-06,-3.980438877917049e-05,-0.00011399402956938217,5.8356064636157925e-05,7.415055227371256e-05,5.733573635275123e-07,1.0879664395249068e-05,6
3.804755477374818e-05,1.3047400463764254e-05,-7.18944946213839e-05,0.00032483474557389903,-8.87414221814259e-06,-8.536987684536159e-06,-3.160193093548797e-05,-7.939076790470213e-05,8.961635463574176e-05,0.00011619467134741742,-9.343015475841672e-08,-1.8665576666431153e-06,6
3.7686202602477924e-05,9.342447910148055e-05,-8.699333507036525e-05,0.00013161980908794378,-3.945815478626512e-06,-8.834870526792125e-06,-2.176423921397053e-05,-4.829507068877375e-05,8.542525220126859e-05,0.00013019713554526623,-1.73794751793074e-06,-1.6467326071729652e-05,6
3.277317199542375e-07,0.00013702255955850437,-9.971744936912667e-05,2.0571360735832105e-05,-2.9948768133866104e-06,-3.7611886239209823e-06,-7.314081902309302e-06,-3.0539926011255855e-05,8.367334600650614e-05,8.609920139728271e-05,-1.3683984932591436e-06,-3.581997544582094e-05,6
-5.07382278468187e-05,9.36020829857058e-05,-9.442938394154242e-05,-3.0859028501248444e-05,-1.944447783030411e-06,2.0446716033659086e-06,6.044099777165269e-06,-1.1231295038751003e-05,7.6781818534106e-05,6.6755348052078126e-06,8.453634816179461e-07,-4.691827099447709e-05,6
-9.046905561271587e-05,6.918452794144344e-06,-6.49092453237296e-05,-7.545907781883299e-05,7.313666216573465e-07,4.244458862485371e-06,1.1768531845212837e-05,1.6768338232794958e-05,3.8920423704252476e-05,-6.735032658340519e-05,1.978129949316779e-06,-3.7767827245512576e-05,6
-0.00011792834616475994,-5.735520146139817e-05,-2.256122861541149e-05,-5.897549880167459e-05,1.4335085114761634e-06,2.4746939165040483e-06,1.1598501238848827e-05,4.6347792404494365e-05,1.3251544774164357e-06,-0.00011362104470860275,6.380246195814237e-07,-1.578795493548425e-05,6
-0.00012166963003292659,-8.59663757217228e-05,1.1625562863123675e-05,4.46027453407493e-05,-1.4704283428842537e-06,-2.83401443224545e-06,1.2196096387617414e-05,8.622962994047515e-05,-1.3294192610257767e-05,-0.0001293944823139156,-3.8492006589758753e-07,-4.273577280231235e-08,6
-5.9051952372798545e-05,-8.991069513696704e-05,2.2305048326517935e-05,0.00016268434458849583,-2.9211323067678963e-06,-4.828790425650474e-06,1.9836219113141108e-05,0.000132669234147068,-1.3840504916159889e-05,-0.00011666848620650158,8.818675168251122e-07,-1.9220881542505005e-06,6
6.381049346200647e-05,-6.820399050327177e-05,1.7810469850699773e-05,0.00020008021671221888,2.2285606895126766e-06,1.6222484916130747e-07,3.149422028705225e-05,0.00014848976980183642,-4.826041836099522e-06,-8.505566331888889e-05,1.2799174708540634e-06,-1.1696538997750464e-05,6
0.00015489095777634958,-3.1706866814959686e-05,1.528697212161008e-05,0.00013667139777550632,8.750431926021651e-06,5.13061064979174e-06,3.741316609122957e-05,0.00011205987560994853,-3.871342667816401e-06,-4.297324623185368e-05,-8.602484729394596e-07,-1.0328440260795473e-05,6
0.00014580376304894587,-1.2761681801192291e-05,1.8023406984977698e-05,3.427612773802656e-05,1.0348424669978478e-05,5.5410706286964686e-06,3.211658817246217e-05,3.149526321352111e-05,-1.5336608988532325e-05,4.39735715883141e-06,-2.5888045258075844e-06,3.0535763944262825e-06,6
7.495376588710989e-05,-1.3042828037605806e-05,2.470733093567359e-05,-3.2404876956694406e-05,8.387040722145726e-06,3.0826058969132156e-06,2.0196085609175034e-05,-5.38318965682939e-05,-3.168953224108674e-05,3.904794014451589e-05,-2.0200471160290574e-06,1.3299449010025293e-05,6
2.365523325553891e-05,-1.9236742176930973e-06,4.060272868049926e-05,-4.265549247020575e-05,5.7527561774846095e-06,1.439184090387663e-06,1.3612672528362162e-05,-9.006013892374744e-05,-5.247118344161713e-05,4.5220076394810946e-05,-1.4255410792164629e-06,1.0098527346774711e-05,6
1.721703480672088e-05,2.1468425524926915e-05,5.9619136319307574e-05,-3.6336228697811617e-05,2.75729071758364e-06,2.8552157954768105e-06,1.128021440259464e-05,-7.558903786028146e-05,-5.917726473400248e-05,2.9565048058793597e-05,-1.8111888445352133e-06,3.1618219699395594e-07,6
2.626679800475398e-05,4.053659503730719e-05,6.933603777571107e-05,-5.92789876465908e-05,-8.24383298898885e-07,3.634868613869089e-06,-2.9408773364718863e-06,-4.852133535226352e-05,-4.950878837021873e-05,1.1099624856049937e-05,-1.1777683996390919e-06,7.656328363075968e-07,6
2.5589085721425403e-05,5.946821213747631e-05,7.597168925300532e-05,-0.00013192991692038516,-3.7484136706816127e-06,9.099578834339794e-07,-2.644848258331863e-05,-3.2657602886710745e-05,-3.527076457269547e-05,4.884569994352843e-07,6.051935466314609e-07,8.325043492927696e-06,6
7.582974410208524e-06,7.076536014378043e-05,7.926767357465734e-05,-0.0002225831589610893,-6.363422215340612e-06,-1.7063898265789386e-06,-3.626325427650881e-05,-2.7976618327034584e-05,-1.2160993533619496e-06,-6.610587401431936e-06,2.36179769792888e-06,5.696771471653019e-06,6
-2.603126318870903e-05,5.52679567719135e-05,5.1358213485503904e-05,-0.0002683858802510364,-9.171279447288766e-06,-7.338121289602307e-07,-2.362604946644765e-05,3.519648407904727e-06,5.365005970802774e-05,-8.725039731805406e-06,3.328746304079867e-06,-5.323351478097476e-06,6
-7.186715607126342e-05,2.7116236222629093e-05,-1.7320411645021452e-05,-0.00025671640653959646,-8.684392838051592e-06,3.414158152492722e-06,-2.4677673166103177e-06,8.414175225948773e-05,9.816300430723178e-05,2.4827757946526917e-06,3.4725582600802303e-06,-1.0713223443130278e-05,6
-0.00012877788254714442,7.033249520401105e-06,-7.978013453685473e-05,-0.0001984462082885116,-3.9196377719857766e-06,6.403175296029211e-06,6.3776191697580895e-06,0.00013747769180208762,0.0001045897239684941,1.7289046916861103e-05,2.7948081794104718e-06,-5.074227649570933e-06,6
-0.00016777669961722357,-1.0166689557822557e-05,-8.612522621200944e-05,-7.837626198857374e-05,-1.448105258680782e-07,4.109140613265561e-06,-5.289945963800601e-06,7.514020272892421e-05,6.745419377571869e-05,1.82216150871783e-05,1.4689062211412019e-07,5.1844088044721404e-06,6
-0.00014357227504981578,-2.768551507695776e-05,-5.312501564931799e-05,9.530994117514396e-05,1.135162929185015e-06,2.777347492054572e-07,-2.1323983734934562e-05,-4.7094249488884515e-05,-1.3809673453304695e-07,6.025118834441206e-06,-2.170736235243322e-06,1.127071486736621e-05,6
-6.367800882667922e-05,-3.936793257277963e-05,-2.752069998232384e-05,0.00026032983540537065,5.267418465525815e-06,2.4572684827002798e-08,-2.213161557016796e-05,-8.370337344637075e-05,-7.327526104392043e-05,2.9945981667112913e-06,-8.79280735634219e-08,1.1422938361330531e-05,6
2.0546800690838186e-05,-3.535757584572891e-05,-2.038681843025856e-05,0.0003447322573466425,1.0543373892552648e-05,6.388877417962242e-07,-1.3013738737602905e-05,-5.69899702594099e-06,-0.00011133683272111947,2.3629362305788398e-05,3.4021575359408342e-06,7.608933650434466e-06,6
8.008325860716379e-05,-1.111330234182097e-05,-7.991358006740174e-06,0.0003474195188539828,9.079007577816246e-06,-1.3350509293191892e-06,-8.003477649898215e-06,6.928575910948596e-05,-9.685553008192408e-05,4.433196138829348e-05,3.6655018528007124e-06,3.4786963125598384e-06,6
0.00010885576936421197,1.0079127156781055e-05,3.184835115418091e-05,0.0003208562575351687,3.2444845306735145e-06,-4.767121082869032e-06,-4.008357062834908e-06,4.107985611174648e-05,-5.839567134359308e-05,3.941231365256604e-05,2.0376994709373237e-06,8.394679236832582e-07,6
0.00010230388696006274,1.661742777345762e-06,7.056296391325877e-05,0.0002854390867472982,6.685929931640179e-07,-7.622616810494734e-06,1.3077062784191317e-06,-7.388629811003465e-05,-1.2850199391772879e-05,2.1554943800904763e-05,-1.2481793096090166e-07,-2.803739529107545e-06,6
7.385602399041219e-05,-2.9413997681409514e-05,5.239761493081182e-05,0.00023611769323480584,8.753151405784809e-07,-8.767496531323579e-06,3.7047503153347567e-06,-0.0001749886390659898,3.867409369043094e-05,1.1175420074736562e-05,-2.68815455878904e-06,-5.4645281606783705e-06,6
5.280445099613789e-05,-5.047608518851769e-05,-6.500876712055164e-06,0.00011129496620413202,-1.887899714317857e-06,-8.885397574311135e-06,9.485512667006696e-06,-0.00018418574090042688,7.372226755207069e-05,6.5821233660798865e-06,-4.683834277418234e-06,-4.490449476873924e-06,6
5.087046622908656e-05,-4.229683771390912e-05,-4.0501688592467325e-05,-0.0001473289371095289,-8.245482289775767e-06,-9.404913420615014e-06,1.6229421885713972e-05,-0.0001249848654063158,7.31697671029429e-05,1.0087343945621904e-06,-6.022574307367723e-06,-3.2701393918460073e-06,6
6.164444057748259e-05,-1.9886759400057525e-05,-3.793938305263848e-05,-0.0003988052467269898,-1.1406919661804017e-05,-8.718182020158222e-06,1.311878862781219e-05,-6.160143128418754e-05,4.504947697442917e-05,-3.6296752844558137e-07,-5.405355176276055e-06,-3.110500578176952e-06,6
8.079838290072184e-05,3.970703052785783e-06,-2.6106532763537988e-05,-0.0004625865572106026,-7.9874326715296e-06,-4.288086761319612e-06,8.084620609569282e-06,-1.526204304784758e-05,1.0992647831582388e-05,7.661962831166709e-06,-2.9118580580173177e-06,-2.976319468694073e-06,6
8.947655202209455e-05,2.9986025379008957e-05,-2.437766930842953e-05,-0.00034960901015858444,-2.5500353071218055e-06,7.480519701647436e-07,1.1509993393534544e-05,2.217986893806418e-05,-1.951884056834844e-05,1.4490028901554452e-05,-1.9185716802578706e-06,-1.6355783905785835e-06,6
