emg1,emg2,emg3,emg4,emg5,emg6,emg7,emg8,emg9,emg10,emg11,emg12,label
6.35038581619136e-07,4.20213753792161e-07,-8.119530747024612e-07,-1.4133987047123013e-07,9.879504421761741e-08,1.0140082506608323e-07,1.4427413426532012e-07,-2.1032285994738943e-06,-6.419868780058084e-07,1.6868943703254002e-07,-1.5669635573119387e-07,-2.2674695865839804e-06,4
-8.857182070597638e-07,3.803569860673949e-07,4.872968390705926e-08,-6.239852292455745e-07,-2.5802220190154967e-06,-1.3501212824274953e-06,1.495935555581787e-06,2.799233950784361e-06,-3.1340782023361697e-06,-1.7110677297741485e-06,1.0348839755562199e-06,-2.0212957214277083e-05,4
2.2424683741946524e-06,1.0010099236610285e-06,1.0871343124129085e-06,-8.986188206383023e-07,-3.981782514575285e-06,-8.066260132640917e-07,2.4518624007213334e-06,5.758573273040993e-06,-3.2006821906982797e-06,-1.4029190596975237e-06,-4.09810231279741e-08,-3.617473218755569e-05,4
6.621222471190279e-06,1.7984153864145565e-06,2.5528341100454016e-06,-2.918997397939738e-07,-3.3168521866974994e-06,-6.119448148068642e-07,1.1470692868625516e-06,2.2735393578540903e-06,-2.2759278048785376e-06,-2.6353226541897233e-06,2.2957976343220312e-07,-5.6923764219546976e-05,4
8.892873145503615e-06,1.2761618506486096e-06,5.102930647378692e-06,1.6000294719979442e-06,-1.378156505718959e-06,-2.2397769003020327e-06,6.739721526281213e-07,-5.993063205585461e-06,-2.6057580656661647e-06,-5.382160724785003e-06,9.026255504396634e-07,-7.33804680007523e-05,4
9.10642429931065e-06,-1.1012099346249159e-06,5.919804258869447e-06,2.8773571076155402e-06,1.0022992615559402e-06,-4.192328018729148e-06,2.3617964800634447e-07,-1.3522682606935576e-05,-3.5271776559751173e-06,-5.940982103638555e-06,-2.3375244467983284e-07,-7.667478049282253e-05,4
6.112229906273311e-06,-4.283123223404356e-06,3.7578593844255647e-06,2.4488861996510016e-06,3.270616702697899e-06,-3.095867642794945e-06,-8.438787584584285e-07,-1.7775326618134335e-05,-1.9023511128605201e-06,-3.2444073901909137e-06,-1.6517756412322117e-07,-6.533678738989248e-05,4
7.762583548163229e-07,-6.308082512668713e-06,2.0493432582949106e-06,1.1549861431837187e-06,3.956550248417474e-06,-3.3557268576987844e-07,1.673186185115095e-08,-2.0851591105766565e-05,2.8899263140899875e-06,4.022214044979529e-07,4.7464919740525024e-07,-1.2985428089095431e-05,4
-2.173011051286908e-06,-6.31387799296086e-06,1.573610351743626e-06,8.127803659857097e-08,2.2850317828476826e-06,-6.246200206889264e-07,-2.0574616152496295e-06,-2.3111450298061096e-05,5.662993141906911e-06,1.3913038527773142e-06,-2.642901788508938e-07,8.079966549699118e-05,4
-1.8333544409986438e-06,-3.566846601055762e-06,3.87851462190427e-07,5.852760374116699e-07,-1.217441700867375e-07,-1.5281496233976927e-06,-6.612704047261864e-06,-1.9623510566366117e-05,3.607689798700878e-06,-9.007487176629878e-07,9.938401771430797e-08,0.0001463274650251974,4
-8.954966955468378e-07,2.4539028133703523e-06,-3.4758264175242793e-07,1.599247455275446e-06,-1.0808087577811181e-06,-2.515530319501109e-07,-5.429617850636156e-06,-9.879269182275016e-06,1.4904143736350122e-06,-2.8871944863791326e-06,1.1167450538645209e-06,0.00013398338960453026,4
3.2282042145642034e-07,7.609943589567139e-06,1.046529296018398e-06,1.3959201543848339e-06,-2.0368069503580844e-07,1.305509515678903e-06,-6.101827506901705e-07,1.4063558004742025e-06,1.6116596620047747e-06,-1.802615525231633e-06,2.0029312048431845e-07,7.035959964044465e-05,4
-9.799452210560572e-08,7.354029215164248e-06,2.4965963340815256e-06,6.268254783588995e-07,9.784556073074211e-07,2.5831988031695405e-06,1.4814131984915084e-06,1.1598375723334338e-05,8.570416532708494e-07,4.474344662691957e-07,-1.4817960647308807e-06,6.565602772289992e-06,4
-3.847173672562045e-06,3.4256815488942094e-06,2.9410800907055836e-06,-4.1866329835580907e-07,7.461833842120182e-07,3.00877370689912e-06,9.17475143470597e-07,1.6363464568274267e-05,-6.917391890704302e-07,2.0949288474719377e-06,-1.5685408535865036e-06,-2.9845645600335344e-05,4
-6.853875716477358e-06,7.553045590248093e-07,2.979170403973941e-06,-1.509260459800525e-06,1.283910603677963e-07,2.660831547619763e-06,5.683086414088113e-07,1.2753591821808589e-05,-1.3962022550636665e-06,3.0510104734580677e-06,-3.353302572023373e-07,-4.080904421185746e-05,4
-6.716295049654738e-06,8.984994890501652e-07,9.487056280805259e-07,-1.8816777699240446e-06,8.204576832256853e-07,2.936570692024877e-06,1.6226684318209931e-06,1.2542572872786299e-05,-1.8070006918803665e-06,2.1085315767192436e-06,1.0606720195511098e-07,-3.972999159773339e-05,4
-4.464277145916412e-06,5.171512283380193e-07,-2.9804526072232654e-06,-2.1910676087237404e-06,1.049394269017202e-06,3.224300580426756e-06,3.2820029617444735e-06,2.8392362816951723e-05,-8.534789076669974e-07,-2.3034006439232682e-07,1.4725453824275048e-07,-3.6682039732423344e-05,4
-3.076724510197755e-07,-1.9024281837717305e-06,-7.289309833179783e-06,-3.9441255982393825e-06,-5.948491266172652e-07,2.061285577082297e-06,4.410144942114645e-06,4.9715641599726954e-05,1.7412010377396506e-07,-2.581438899152916e-06,6.173412109753489e-07,-3.321305048033779e-05,4
3.520789145966736e-06,-3.672248465832277e-06,-1.2692279672678425e-05,-6.3980887328931556e-06,-2.774786029060635e-06,-2.0751470188572837e-07,2.4493576133493986e-06,5.527925192139535e-05,-1.45702962202039e-06,-3.289564854786434e-06,-4.3033108084633003e-07,-2.7951084622905096e-05,4
4.267440380861666e-06,-4.096122644845908e-06,-1.7735975852369715e-05,-6.231360766117934e-06,-4.200893244471953e-06,-1.5072573041577513e-06,-2.832827692662532e-07,3.53420177068357e-05,-2.5576619597372916e-06,4.663637244839219e-08,-1.3979592018374453e-06,-2.4570695679193092e-05,4
2.8359511330966466e-06,-4.1214575200703295e-06,-1.9317892552838945e-05,-2.6939140535238117e-06,-3.6872458895689024e-06,-2.256278691716224e-06,1.0858084341175505e-06,-4.932182537546926e-06,-1.8558392263692141e-06,5.0477352236844004e-06,6.527079090235105e-07,-2.188229345916735e-05,4
2.8700917390689612e-06,-2.7131526506603995e-06,-1.765658031623501e-05,1.3867323504795634e-06,-1.413792517852704e-06,-4.038158835056764e-06,2.224548352434082e-06,-4.666249897408882e-05,-1.4976335640180963e-06,7.551447330482829e-06,2.4702358278352695e-06,-1.4145387567363201e-05,4
4.425718039316439e-06,8.276778892126394e-07,-1.4026502098556535e-05,3.606506151810456e-06,2.515816181647714e-07,-4.9329520285255645e-06,1.1855880758286203e-06,-6.700055772407313e-05,-3.1987988291444033e-07,6.936531413662707e-06,1.6013340718554138e-06,-3.042263222266539e-06,4
2.08657140414243e-06,3.6542805302504848e-06,-1.025069407599268e-05,3.954335996302916e-06,4.6374414818390394e-07,-3.762807756675471e-06,5.943967889877949e-07,-5.6510099821369994e-05,1.7455485645905404e-06,3.540471768019163e-06,7.238498483241729e-07,6.971130072827217e-06,4
-2.3155307916937586e-06,2.193978397391636e-06,-7.005047418776497e-06,3.876527235407638e-06,9.12223080281112e-07,-1.3514476732947445e-06,-1.169593904842972e-06,-2.332804468840003e-05,3.682489380103007e-06,-9.02995283195359e-08,1.1435728334852978e-06,1.296940162943132e-05,4
-1.9347945713192073e-06,-1.0218008527569135e-06,4.721273230950689e-06,3.7184417778117338e-06,1.4963223212320266e-06,1.412691873012718e-06,-1.8495282370366423e-06,1.1083372529739428e-05,4.905346450882094e-06,-1.3371013826411563e-06,1.04657306706388e-06,1.2926379430595985e-05,4
-1.093646600833259e-08,-1.4329955339502004e-06,2.9500795125449815e-05,3.324371816762742e-06,7.645761789532774e-07,2.666712183057945e-06,-2.413150007271191e-07,1.9982132068021273e-05,3.8987310957307144e-06,-1.9124857899617495e-06,-5.341359521797523e-07,9.34483573045448e-06,4
-5.952161996577354e-07,4.1480544733137855e-07,5.044094478810752e-05,2.8987818805716215e-06,1.5694773518193093e-07,2.4978232910197307e-06,6.450879228958883e-07,9.905469294742838e-08,2.553357651774721e-06,-1.99305361070885e-06,-1.927012558573345e-06,7.014954412857423e-06,4
-2.461735448295527e-06,2.735747284154441e-06,5.225766649430208e-05,2.6102120139629865e-06,7.543603849949098e-07,2.2223131676091386e-06,4.68325431426495e-07,-1.9401734153018363e-05,2.49320857417579e-06,-6.710048853827822e-08,-1.6777798069964244e-06,6.760004143260057e-06,4
-5.382679721188802e-06,3.7642549395316002e-06,3.973709017557846e-05,3.3488109869595124e-06,1.7679639895515156e-06,1.5216428282277615e-06,-8.662017705902596e-07,-2.1805031844738993e-05,2.7297680607283235e-07,2.0645691413339117e-06,-1.2325564924830601e-06,6.116863617469108e-06,4
-5.985926560603144e-06,2.6789805807693596e-06,2.302022212771447e-05,4.3089475670504415e-06,2.500923412618386e-06,4.2534503874602017e-07,-1.7133973754683363e-06,-2.4456998476164563e-05,-4.062673349039835e-06,2.207859381918351e-06,-2.3402477985574692e-06,5.038312695663255e-06,4
-3.191553206417054e-06,5.350123936276813e-07,4.842602687247455e-06,2.3523998436379082e-06,1.9568077201040526e-06,-1.0375614460899338e-07,-1.6793808377177188e-06,-3.0449967744297264e-05,-5.996550476164437e-06,-1.2394037585947715e-06,-2.533856302268273e-06,5.3319658328982925e-06,4
-8.724821646754635e-07,-2.8203616808554127e-06,-1.3428890713434276e-05,-2.3343584110540137e-06,7.250215776615641e-07,3.830885391123836e-07,-3.1792870987254267e-06,-8.511789957120268e-06,-6.691290723782355e-06,-7.752391072731805e-06,-1.4723616634870385e-07,5.795943462472676e-06,4
1.2016843332903043e-06,-4.310858564436595e-06,-2.537641511531168e-05,-5.052879833423562e-06,-1.0077323596157522e-06,4.5596962578747233e-07,-6.122071455798961e-06,4.305524660923361e-05,-8.921829813279004e-06,-1.3096723573814995e-05,1.0416900553823483e-06,5.142108296555316e-06,4
4.236099775543985e-06,-6.796607684046656e-07,-3.12623642224519e-05,-4.394965372192719e-06,-2.391282834002319e-06,-6.277487233473651e-07,-9.1493592207779e-06,7.944751691274153e-05,-7.801251430840312e-06,-1.2722839646714744e-05,8.65428931814696e-07,4.663881480050914e-06,4
8.503893093387443e-06,4.19142105258304e-06,-3.735213786502986e-05,-3.2652038913945297e-06,-6.822964680158313e-07,-1.2993336680947546e-06,-8.268914101652959e-06,7.6582040757281e-05,-4.4524425683743714e-07,-5.205528782080475e-06,1.6742058764174669e-06,4.155112337745228e-06,4
1.1815196189141884e-05,6.311827613286039e-06,-4.2060927256738264e-05,-1.7538701936076754e-06,1.562422444746358e-06,-1.577707028960014e-06,-2.3880562091347946e-06,5.051070709456841e-05,6.762616673394388e-06,3.0315309141387396e-06,1.575688354898109e-06,2.6579629530428535e-06,4
8.562424063531158e-06,4.602891107880576e-06,-4.2242035328644835e-05,1.0063756742311917e-07,1.3927742440980663e-06,-1.9172896493457613e-06,1.9700756335535195e-06,2.5098950865759424e-05,8.382538292704148e-06,4.954701329525597e-06,9.526027174575174e-07,3.037790684172343e-07,4
7.780577351026611e-07,1.0189904887409011e-07,-3.130091315292892e-05,1.1317219198129234e-08,3.002050852824276e-07,-1.6984398494044188e-06,2.574673271325639e-06,5.850988493928152e-06,4.303316083219883e-06,2.684374905260332e-06,1.10706424858043e-06,-3.3400497172586136e-06,4
-4.964524675611878e-06,-3.492569823605456e-06,-1.083508065602112e-06,-1.6982160614262334e-06,-1.1127335875142828e-06,-1.1644147879922762e-06,2.9316519314031085e-06,-2.0611178147921467e-05,-1.1930841114585988e-06,1.8948087963927126e-07,3.521390567956821e-07,-6.670275711488546e-06,4
-6.97744012694086e-06,-4.997589426349204e-06,3.606132565320221e-05,-4.617674029219926e-06,-1.527353807810438e-06,-2.7573836667991743e-07,5.5577044033788754e-06,-5.321496078432946e-05,-2.7278690298298144e-06,3.194453882349809e-08,-8.338672304048739e-07,-6.765457863145286e-06,4
-5.135316250778997e-06,-4.216811079893505e-06,5.9140991906479356e-05,-7.754627268943412e-06,-5.004782035537921e-07,1.6315407152445748e-06,1.161021838132903e-05,-7.459351061571315e-05,-1.388647451159387e-06,3.61194549122695e-06,-6.806303715754435e-07,-4.478640093701908e-06,4
-2.034904706815343e-06,-1.3650074542508657e-06,5.4679571324484646e-05,-7.2714907238756755e-06,2.6995328019647966e-07,4.353542051824205e-06,1.686957755327616e-05,-8.655570648740536e-05,1.3476337155098567e-06,7.507720893786781e-06,3.4806076055427386e-07,-2.327790883386977e-06,4
-1.7461175952105608e-06,-6.875044744722559e-07,1.813113640479041e-05,-3.5781812565550104e-06,8.400786676101802e-07,4.989396318319379e-06,1.4082869129507484e-05,-9.855068079370537e-05,5.161467786486407e-06,9.154257236112657e-06,8.968754598416477e-07,-9.215839576911805e-07,4
-4.12825917794421e-06,-3.297293808439329e-06,-2.3714841680017773e-05,-3.144491468732142e-07,2.0825506005672613e-07,1.3649623375689657e-06,4.430639247591589e-06,-7.959994947063653e-05,4.917633739984998e-06,9.875091726690137e-06,7.350975557839326e-07,4.0344594448900804e-07,4
-7.1228121487753945e-06,-5.822500768206809e-06,-3.5339110611559634e-05,1.26386087461708e-06,-2.5787096145372924e-06,-3.2111268878196012e-06,-3.861625389677487e-06,6.588140631926973e-06,1.4177108751257509e-06,9.129412610616838e-06,-3.188672369423201e-07,7.860558505814791e-07,4
-6.414533300469617e-06,-5.887994901622908e-06,-2.096105065228932e-05,1.4882745530190956e-06,-4.514697599149175e-06,-4.994231149626632e-06,-6.74013878837066e-06,0.00010934519274299353,1.2052324393975858e-06,5.500271399003029e-06,-1.7718153403504022e-06,-1.5350117467622218e-06,4
1.1354587525727871e-07,-2.3285325650343193e-06,-3.091179695973102e-06,2.8692872731307477e-06,-3.69556590008368e-06,-3.511022158065313e-06,-4.394010797811049e-06,0.00014064644672432354,4.18747477243746e-06,1.0735019928889289e-06,-1.7042095736148545e-06,-3.4939202120584764e-06,4
3.863412138399693e-06,4.58275237944987e-07,6.523335473547796e-06,6.660325865179155e-06,-2.2820682441438886e-06,-1.5426394254363886e-07,-1.4975626134756332e-09,0.00010250005993553827,5.846022076225519e-06,-2.613239068559309e-06,-1.1347648907530477e-06,-2.3785416968271097e-06,4
9.667507977456845e-07,-1.412230006269384e-06,2.9696472884283098e-06,1.0914921651473728e-05,-1.1742450945613628e-06,2.599559143214336e-06,-1.70028481168156e-08,6.246197386344129e-05,3.4861163760702526e-06,-7.392715006763954e-06,-9.937640700581844e-07,-1.4649757739405556e-06,4
1.620370210223789e-06,-2.4014842610708155e-06,-6.7349052294105805e-06,1.4490465905238989e-05,1.1181833280971058e-06,3.4291066769152644e-06,-4.161220830445299e-06,4.643731106871096e-05,-1.6207321393375969e-06,-1.2569098795002747e-05,7.830881179960512e-07,-1.1156600866359735e-06,4
7.338472511963958e-06,-5.410361762080795e-07,-1.0193197448026108e-05,1.5608623246111895e-05,3.6772766733668164e-06,2.2792098292812722e-06,-8.480185124524031e-06,2.100588155601049e-05,-6.189508546335807e-06,-1.2947254292558774e-05,2.6251633876134506e-06,7.01394842838745e-07,4
8.640270799468175e-06,2.202932535348374e-06,-5.967109500544214e-06,1.232916547622026e-05,4.666325473634316e-06,5.934345581754084e-07,-1.3114840959946992e-05,-3.395367497992913e-05,-6.795622915753955e-06,-5.933548145634113e-06,2.02842715396652e-06,2.0685297403300033e-06,4
6.035808340031604e-06,8.819255678996998e-06,1.1727519909245891e-06,4.921483052528033e-06,4.87980278060998e-06,-1.6723527530429692e-07,-1.4096462723972517e-05,-7.916936418896256e-05,-2.96405320945557e-06,2.8996541941913613e-06,4.187213244266967e-07,1.7556346062617109e-06,4
4.747282441157086e-06,1.4947645619722447e-05,7.146596120101509e-06,-5.7622344777879025e-06,4.808619339039654e-06,-1.1652888922897916e-06,-7.95960736710359e-06,-7.969573222487436e-05,1.3035911823833357e-08,5.8060591814549755e-06,-1.1697527175350945e-06,1.6456381520794507e-06,4
3.1167695401169155e-06,1.3750544584755531e-05,9.403420867096558e-06,-1.6555438747603996e-05,3.6094778930356966e-06,-1.338619074584148e-06,-1.1720421778971895e-07,-5.759990344342679e-05,-6.400839244725819e-07,2.3384066920160204e-06,-1.711420602445746e-06,2.545654058545904e-06,4
2.2411197925041826e-06,1.0481091184652841e-05,1.4199189742542635e-05,-2.1370392691895633e-05,2.2668082258965155e-06,1.382979203904926e-07,4.54316690357488e-06,-3.574423831284075e-05,-2.369220606504323e-06,-2.207791737969934e-06,-3.24401138829391e-08,2.2814755552283123e-06,4
3.659146742622262e-06,8.542833777764442e-06,2.6223850436866836e-05,-1.698501708724492e-05,1.3176717188860058e-06,-6.542135190847591e-08,6.789791905930069e-06,-1.2330172600908518e-05,-4.23002493482901e-06,-3.992100592264046e-06,8.571053655655103e-07,1.3970854059277904e-07,4
-8.303464517076452e-07,4.055637405343343e-06,3.0358044666751952e-05,-7.950054123277544e-06,-1.6892270505605015e-06,-9.606169353446622e-07,7.196400899101759e-06,1.1559940627747212e-06,-7.027262979815339e-06,-3.209148302969103e-06,-5.923965264515676e-07,-2.0808250117468347e-06,4
-1.1089622146526107e-05,4.56796998996009e-07,1.7116928382763098e-05,-1.4952353962620252e-06,-6.079845643155404e-06,-8.599004454082891e-07,5.026181724931509e-06,-6.023871325631634e-06,-9.656011123450982e-06,-2.213951033056067e-06,-5.578336060142961e-07,-2.7463516308528213e-06,4
-1.3397509209860967e-05,1.991491361389975e-06,6.40479305364537e-07,1.6325227762115398e-06,-7.4839295517518415e-06,-1.3799192641257832e-06,2.4372830557314583e-06,-1.9447646210297595e-05,-7.865066456889328e-06,-2.0814022013344636e-06,1.0799142135665497e-06,2.9668360299577455e-09,4
-6.157508852335175e-06,1.4695548633654607e-07,-1.12565129152947e-05,4.261497341927919e-06,-5.0955949637153265e-06,-3.9293804020540285e-07,1.868373120891544e-06,-2.196641668248177e-05,-8.305547016410373e-07,-1.8671035677550494e-06,4.814295747337885e-07,3.7194067398845213e-06,4
-1.99288643352005e-07,-9.704322129669734e-06,-2.154616823908878e-05,6.249668777609224e-06,-1.565563768394277e-06,1.5014487892285477e-06,3.151036150779927e-06,-1.2322202790366192e-05,4.917732237163472e-06,-1.1638477362432756e-06,-1.5355462351756402e-06,3.668916516597504e-06,4
-9.14461930700023e-07,-1.863923493533749e-05,-2.7212882798167646e-05,6.759078457469127e-06,6.270889120765615e-07,7.580769351962538e-07,4.553660802008064e-06,-3.22746598750418e-07,6.17446925857093e-06,-7.708549709615254e-08,-1.2594514958334157e-06,1.4664458512970702e-06,4
-4.174317150181394e-06,-2.1526822648234076e-05,-2.4955223771996173e-05,6.0871338003103e-06,1.0595163048600904e-06,-5.613892347857774e-07,2.422710079628189e-06,5.080779001475053e-06,6.616224080773841e-06,1.9035001399344851e-06,2.8633631540339106e-07,1.632627645340706e-07,4
-2.997558560223894e-06,-1.8667650217168095e-05,-1.757199336385858e-05,4.778300484240376e-06,5.170623519379462e-07,-7.473396525820249e-07,-2.1933284596836105e-06,6.2737571762854455e-06,9.137085555160398e-06,4.380601904700761e-06,-3.7778416176401773e-07,-3.840394790896923e-07,4
9.731425910529447e-07,-1.2258229207122195e-05,-1.1603681985570185e-05,2.814208681262864e-06,-4.4529443712022176e-07,-4.935545525225097e-07,-3.0011806406120264e-06,1.4158685775530152e-05,1.249603817141267e-05,5.984459543403615e-06,-1.3043590151067345e-06,-7.771659441908264e-07,4
1.7494390327315964e-06,-7.533522662420845e-06,-8.377945988898338e-06,-5.424564695860906e-07,5.855882191235859e-07,5.1601861706381525e-08,3.4035410144219546e-07,3.001291139235272e-05,1.0633469970330672e-05,6.293992554767673e-06,-5.522764025035413e-08,-1.3830463273537846e-06,4
4.3290112472179814e-07,-3.7495731425286877e-06,-2.7151085414700737e-06,-3.7440897365851133e-06,3.4478941150306423e-06,1.9377333245893895e-08,3.6521932141410764e-06,4.670464845524023e-05,9.646998227039848e-07,7.150978932076106e-06,1.5601253272867878e-06,-2.5431062212461197e-06,4
3.368476203575272e-07,1.7323802733221055e-06,5.535074520029412e-06,-4.795791481692843e-06,4.095684533448379e-06,3.299834162237256e-07,4.7371824830502505e-06,5.745319037834413e-05,-8.975092225010565e-06,9.113263820349693e-06,2.497832786708406e-06,-4.605204674209504e-06,4
1.1002569428503067e-06,6.18947739220032e-06,1.1621722844262036e-05,-5.100024012477519e-06,2.6522782140105256e-06,1.6051426146423511e-06,3.0831791798693204e-06,5.3896301272814876e-05,-1.2766055294879635e-05,9.193985367634226e-06,1.9184659690155422e-06,-5.067135366960099e-06,4
2.0234492702876924e-06,7.936801826364513e-06,1.489274537267621e-05,-5.292404119590221e-06,9.43010402838557e-07,1.1424287276089476e-06,-3.637100314791359e-07,4.8851973582327974e-05,-1.0070020783823352e-05,6.6149497221685415e-06,4.250120665392829e-07,-1.828870521156213e-06,4
3.24928517003927e-06,7.597561483442906e-06,1.8842506355488406e-05,-3.821499595399415e-06,-4.0149345228881283e-07,-1.1445200300920113e-06,-5.5494974207667905e-06,4.4277339033116126e-05,-3.02009365469999e-06,1.9172514856901763e-06,-4.5366668137878526e-08,2.1235472193653443e-06,4
3.0184606512272302e-06,5.743742512043593e-06,2.0713054822294507e-05,-7.616137247218104e-07,-1.199655135494324e-06,-2.3820926551777937e-06,-1.0722478253080166e-05,-7.682770881885415e-06,2.4586628767320858e-06,-4.5410321281486525e-06,-6.963601015771944e-07,4.7360786402820085e-06,4
1.3162884626133407e-06,4.092338189881879e-06,1.280736435858411e-05,2.835814881905057e-06,-3.5509857529087486e-06,-2.1537900612515856e-06,-1.0107487461858488e-05,-8.896736708160699e-05,2.9882264775158e-06,-9.028812212929853e-06,-1.586792015595035e-06,5.152483297144514e-06,4
1.3427170934702815e-06,5.133716652721437e-06,6.571333570849115e-07,6.910493782767482e-06,-5.231729425991961e-06,-1.1440330195360876e-06,-3.828706577272767e-06,-9.480547145069676e-05,2.47889556139376e-06,-1.0069619370579145e-05,-1.6012765585223355e-06,3.512778288255561e-06,4
2.9785381274571787e-06,9.473371839390376e-06,-2.95798552865211e-06,1.0448504755582453e-05,-2.7485026020500507e-06,7.466500229085925e-07,1.4040882790794726e-06,-1.3158260709340958e-05,4.799169212691542e-06,-9.386486317822036e-06,-1.2897376684327116e-06,2.6988682286843883e-06,4
6.106886749002859e-06,1.5498841450980382e-05,-8.608456083400005e-07,1.0311049226021485e-05,6.809968226510862e-07,3.1819345395912976e-06,3.4515976779602267e-06,6.459149062589835e-05,8.727696253750502e-06,-8.184338752504341e-06,-3.0729687582344377e-08,8.1888412895209e-07,4
1.1271840764057031e-05,2.0849438048216823e-05,-2.83474994494314e-06,6.082292022557857e-06,2.841989254199905e-06,4.474366395865644e-06,3.730856736616535e-06,9.079413668464818e-05,1.0474470937136035e-05,-8.00202227174511e-06,1.5823735135376743e-06,-3.4650332536038397e-06,4
1.2925693208284732e-05,2.2094818655054803e-05,-7.603147592325436e-06,1.2095271508701566e-06,3.885754681628307e-06,3.2043164052266877e-06,2.805948169614005e-06,8.319829458456629e-05,1.0227151524716348e-05,-8.611584074465218e-06,1.8645713906194162e-06,-4.953945239012745e-06,4
7.653036972392219e-06,1.674877302000416e-05,-1.1067598263166437e-05,-2.9897919128147475e-06,3.1976599556457644e-06,1.835128080007604e-06,3.791046133788509e-06,5.169506834841097e-05,1.1033594217682993e-05,-8.366689659625924e-06,2.3361105818731047e-06,-2.4955930190138186e-06,4
-1.8347448604300908e-06,6.843012166676614e-06,-1.331359928727682e-05,-6.79361636323129e-06,1.3287442833963567e-06,1.5067158668444356e-06,7.678256632199314e-06,-1.583233429809246e-05,1.1255461314797529e-05,-4.79483619108489e-06,2.924558830633789e-06,8.102788754547756e-08,4
-1.1743810762534468e-05,-5.648161071277071e-06,-1.3172066782729005e-05,-9.46228500250443e-06,-7.544631264111162e-07,-1.2030225176473833e-06,8.200107179117457e-06,-0.00010120158540006586,9.100202630532661e-06,9.87796759722954e-07,9.006506717820484e-08,5.915159532472425e-07,4
-1.6838022564076516e-05,-2.1209641976413005e-05,-8.358937630102695e-06,-1.0493899835099797e-05,-1.7242238894896239e-06,-4.61744218429579e-06,2.548161308265219e-06,-0.00015963354065997058,2.7179672009222936e-06,4.009025210432412e-06,-3.858793470263801e-06,9.94066337092458e-07,4
-1.748294839349704e-05,-3.2956029363608015e-05,3.4916587789802587e-06,-8.47074508949726e-06,-2.231373351792801e-06,-4.344246590716109e-06,-3.682973315918325e-06,-0.00016435711138288443,-1.5775971330644498e-05,6.698679431552181e-06,-3.67499222903266e-06,2.9807910164041706e-06,4
-1.7660228335309543e-05,-3.131495341663037e-05,2.0119557854585105e-05,-4.085302836680795e-06,-2.708971614503237e-06,-1.9103056592991623e-06,-6.927310073206569e-06,-0.00011849950634519417,-4.153286998111261e-05,1.1263463141261848e-05,-1.7643807895383001e-06,3.45586289668688e-06,4
-1.4258276323813872e-05,-1.937451353451139e-05,2.8145300237421353e-05,-7.727071819851539e-07,-8.853312218269919e-07,1.5501530048014784e-07,-7.984132814212838e-06,-5.394398257619834e-05,-5.2362274739810564e-05,1.2286616362081573e-05,-1.6546075623554236e-06,1.9352882478147476e-06,4
-5.6016961722565326e-06,-7.3894997284041914e-06,9.016792561105046e-06,1.978569599528357e-06,1.9484437701576506e-06,1.2298574839761164e-06,-5.56693910109244e-06,5.799354884065719e-06,-3.993157901260016e-05,9.084046129769375e-06,-1.6926218770286297e-06,-8.554706581416131e-08,4
3.4162683220400853e-06,-1.754673087996232e-06,-3.80547072901968e-05,4.764527968710968e-06,3.3584264333181676e-06,1.1817230747440351e-06,-3.4908731447389525e-07,4.199096609852893e-05,-1.6272015320309457e-05,5.6428157271072195e-06,-5.159981929111739e-07,-2.6827124278249144e-06,4
9.851108801766707e-06,-1.9696843324695242e-06,-6.892294361728682e-05,4.361741061592141e-06,2.6768022600351977e-06,-6.464377771071143e-08,1.9354301120898817e-06,2.995584811496484e-05,4.750907329841188e-06,3.721041508927344e-06,7.499195697266888e-07,-3.6435167797594852e-06,4
1.3052062967869474e-05,-2.6226238060736854e-06,-3.317271618465388e-05,1.4643957807270764e-06,-4.827367957019202e-07,-1.829592963062269e-06,5.35752712027194e-07,1.5752009111080967e-05,1.6578729469066735e-05,2.6608116544924494e-06,1.1751590779107818e-06,-3.6595178016639632e-06,4
1.1972525531420158e-05,-2.8227861816286976e-06,4.150165687831145e-05,1.7985159207165352e-06,-2.652955681611419e-06,-1.7465612526711878e-06,-5.338587904219299e-07,5.954239656435555e-05,2.112992297212953e-05,2.4969370186107603e-06,1.6992531258604263e-06,-4.687917997159713e-06,4
8.258207668976748e-06,-5.896928689327009e-06,7.655568905207994e-05,7.855613247643515e-06,-1.122321999250356e-06,-8.185001625174702e-08,-1.2674453329268697e-06,0.00012241331090202072,2.1343996884512227e-05,4.579083979699075e-06,2.2845006515725407e-06,-4.758298333521882e-06,4
6.43512820158069e-06,-5.4959628464555035e-06,5.043916558861996e-05,1.4881475156713484e-05,1.3666468349838078e-06,9.435779762624708e-07,-2.417619826535435e-06,0.00014580379642186052,1.9533533878959176e-05,5.399174635605218e-06,1.8510865747740777e-06,-3.0036712086887605e-06,4
7.548547552622724e-06,1.0802633111918368e-05,8.108592553959951e-06,1.63166696748616e-05,1.317130088844522e-06,3.6849982939294225e-07,-1.7351820610208624e-06,0.00012022624004514806,2.0130494244766786e-05,5.3913636089882e-07,1.5259660216601556e-06,1.9814949122004774e-07,4
8.248398899246325e-06,3.467024907820446e-05,-1.2676710624763005e-05,1.0015368965270393e-05,-1.2841450411850792e-06,-1.4484407508966678e-06,7.642432661831728e-07,6.441774451141773e-05,2.2072951468919828e-05,-7.0070159362848955e-06,1.2665662806698486e-06,2.9205331446704704e-06,4
6.556410560287151e-06,3.963682245485922e-05,-1.3631927271492538e-05,-9.790509159811536e-07,-3.3701884741359427e-06,-1.4471968836291897e-06,1.9418597186171992e-06,1.7012762213448972e-05,2.121813091370742e-05,-1.2106587188145006e-05,3.908106026258348e-08,2.232437765513871e-06,4
2.6876440690899883e-06,2.0337984223325566e-05,-1.0806855914257963e-05,-1.1047677135056745e-05,-3.315396985212489e-06,5.747168302472622e-07,2.8993439183001014e-06,-1.1276777621143145e-05,1.6458790504191295e-05,-1.3690784409977488e-05,-7.658399094346649e-07,-2.1046671726786317e-07,4
-2.1519674796200575e-06,-2.3245495825535064e-06,-1.1419914565971126e-05,-1.6922764913736123e-05,-1.2322573623295593e-06,1.493968575846244e-06,4.610236263616193e-06,-3.9346888755085456e-05,8.049736940711058e-06,-1.241420903093527e-05,-1.3465347187291493e-06,-2.593314583052067e-07,4
-7.827372896149222e-06,-1.2867713652260666e-05,-1.4278877089890476e-05,-1.9112638064282002e-05,6.651484846745978e-07,2.114339120354916e-06,2.7992663249916645e-06,-5.085239781581536e-05,8.528294095753704e-07,-1.0102576896086522e-05,-2.413875099798214e-06,3.0465986658084336e-06,4
-1.6627402035222532e-05,-1.3735195576316767e-05,-1.609494290621184e-05,-1.9466343464468092e-05,-2.4963108034969326e-07,3.301184490433864e-06,-1.6282802401418332e-06,-3.301278745649429e-05,-1.5208631139641336e-06,-9.242054997008227e-06,-2.0627774455369746e-06,6.832862488299493e-06,4
-2.4107910228029483e-05,-1.191339884007538e-05,-1.4858610803932424e-05,-1.824351716813754e-05,-1.880332983778565e-07,3.2863105397328194e-06,-4.100144493039537e-06,-2.4602907167970293e-05,-2.25855590163273e-06,-6.310792246014392e-06,-1.8137443597441843e-08,8.382948469301717e-06,4
-1.8183949774142585e-05,-7.033971858732097e-06,-8.520771599657445e-06,-1.2496248422347638e-05,3.1227116872783803e-06,2.6855018854822624e-06,-2.176179869946664e-06,-4.068777617011175e-05,-4.532667211818834e-06,1.376639479558862e-06,2.35706248697752e-06,7.65816086142538e-06,4
1.601026463916213e-06,1.6634446905162083e-06,2.212436538163184e-06,-3.557481450450866e-07,5.036095634126699e-06,2.7878512278653613e-06,4.737025826998704e-06,-4.376662102496329e-05,-1.204870917547643e-05,6.98155009101035e-06,3.309458746727764e-06,5.110201825147412e-06,4
1.791674150953767e-05,9.33511184011725e-06,1.0492070117789046e-05,1.3276618630215827e-05,4.297514298678079e-06,1.8083113709587147e-06,1.0580130683832962e-05,-1.9784678215697835e-05,-2.6027787852613254e-05,6.686417750891443e-06,1.889908804307097e-06,1.2721779666456487e-06,4
1.6223913566779555e-05,1.1150741429429213e-05,1.1089328498839523e-05,2.0005426732069527e-05,2.58943213415463e-06,-1.1700980046877975e-06,1.045043901065482e-05,-2.5602725058722067e-06,-3.8093639897852035e-05,4.053605109857707e-06,4.2643443175176336e-07,-2.1731736503307326e-06,4
3.330761691234462e-06,3.7698568891811006e-06,5.278096436394942e-06,1.9307848892231184e-05,-1.3407663820886618e-07,-3.7496373855358217e-06,5.853464976666492e-06,-2.2317048347670397e-05,-3.7951715314405524e-05,3.583686768678135e-06,-8.304423556698006e-07,-3.4284381938911884e-06,4
-2.8583754865090954e-06,-8.349484829718225e-06,-8.034597502478096e-07,1.677244695684193e-05,-2.4863310177964646e-06,-5.005706045937969e-06,-2.2830578944530433e-06,-7.00361070584363e-05,-2.5656705227457123e-05,7.01592079034402e-06,-2.7007436655964032e-06,-2.5291197591547002e-06,4
6.394027621065894e-07,-1.2819053801688928e-05,-2.112992435145818e-06,1.2886837832757855e-05,-2.8205271926521598e-06,-5.861755143512667e-06,-1.0723841614446363e-05,-0.0001038490111776935,-9.637002997299682e-06,9.512353093691338e-06,-2.764070629489252e-06,-1.8131683675259778e-06,4
2.6183948750329533e-06,-7.720040736569473e-06,-9.62586412165006e-07,8.01159179414081e-06,-2.6451667208784135e-06,-5.525987935922826e-06,-1.4059992759102056e-05,-8.218581927885407e-05,6.6089949740651245e-06,8.379723616630589e-06,-1.4525667754568173e-06,-2.5688518696119558e-06,4
-4.667371866882372e-07,-2.4262257478982688e-06,-6.179405096165224e-09,4.294883672901745e-06,-2.955421129289188e-06,-4.176127586973882e-06,-1.1961495254792717e-05,-1.179270680505496e-05,2.2808373688311932e-05,6.7890705581623475e-06,-4.882182817388407e-07,-4.056979995274916e-06,4
-3.391988790681981e-06,-1.448178481667153e-06,-5.465927964461341e-07,3.1287876751258935e-07,-2.432611096657048e-06,-2.970864371659616e-06,-7.590030879003656e-06,5.046499292273351e-05,3.201510103158107e-05,5.5159579863995e-06,5.639656686780594e-07,-5.748656189051638e-06,4
-3.586818318746219e-06,-2.9193217095207288e-06,-5.358182253556971e-06,-3.0446388095517925e-06,-1.5225621654367655e-06,-4.749483523934624e-07,-2.318487881366798e-06,6.687502284063234e-05,2.8235534648238276e-05,4.261824247120318e-06,4.489215906672404e-07,-6.751055290727897e-06,4
-1.4043792278521253e-06,-4.03489641114037e-06,-7.339213425394476e-06,-5.2352910494315875e-06,-2.3421144203021485e-07,2.7052988323902668e-06,2.8646335238394603e-06,5.420018125501126e-05,1.5099195617573415e-05,2.556694740145298e-06,-9.161681737447553e-07,-7.485230254771817e-06,4
5.407491590847889e-07,-2.6629470379439774e-06,3.5247534548095446e-06,-1.0277220374292865e-05,1.8472754792393878e-06,4.123606973171454e-06,5.7944186413224325e-06,4.2259493113291204e-05,2.0050884353952135e-06,-8.71380441240077e-07,-9.345571726328816e-07,-8.594026591519339e-06,4
-9.593254152300159e-07,7.618433124836472e-08,2.1250198568552976e-05,-1.730321262540722e-05,2.145974635915107e-06,5.056643442161819e-06,6.405109453230404e-06,3.987535799413497e-05,-3.4177992819848884e-06,-4.508546092791745e-06,1.4962022006353757e-07,-7.230351200958783e-06,4
-2.8137420951123943e-06,1.6277493176879146e-06,3.227811720866936e-05,-2.0545067374756098e-05,1.1433773650762782e-06,6.182550221455927e-06,5.892426887938673e-06,4.16351867901353e-05,-1.2605882698737077e-06,-5.669594820242985e-06,2.08495485632704e-07,-2.9096643855468853e-06,4
-1.0638421970236178e-06,2.583628609907727e-06,3.0560632908452595e-05,-1.7396355762762536e-05,1.4554816123988018e-06,5.840985549719898e-06,4.032049275536233e-06,4.1895619719266793e-05,2.6275673798115605e-06,-4.2571117277361675e-06,-1.1982831738096441e-08,2.082273334015579e-06,4
2.185884716489834e-06,3.835407604686431e-06,2.033748063166418e-05,-9.413073418164739e-06,1.7735784030997643e-06,3.480841502555362e-06,1.9017325044141924e-06,3.910474109652845e-05,3.2853396301552794e-06,-3.736174393551406e-06,5.966636622551018e-07,8.19740163351379e-06,4
5.097506476104119e-06,4.708861685881083e-06,6.781341778168673e-06,-1.621800927856688e-07,1.2942655564848398e-06,4.959204330374238e-07,1.6794799715251497e-06,4.069861171930507e-05,2.012492816551095e-07,-6.002661383703319e-06,1.4156100752480028e-06,1.3594106373465438e-05,4
6.635238508806246e-06,5.141836269932708e-06,-1.415538611218809e-05,6.725848231984543e-06,6.75102675610582e-07,-9.765179412739657e-07,1.4587568658104443e-06,4.859825674014293e-05,-2.7440620505781033e-06,-7.251704796193479e-06,1.984287345967391e-06,1.3290549021302074e-05,4
5.477882278960185e-06,4.6245139623323e-06,-4.161063662873049e-05,9.499136183106865e-06,-1.3614925800826643e-07,-1.0959031856426265e-06,-1.1901395772622523e-06,3.882700551940283e-05,-3.5898077962221224e-06,-5.7256211660033845e-06,1.669065080631292e-06,7.597339259056479e-06,4
3.012434297838524e-06,2.5429577566623752e-06,-5.819776450670016e-05,1.027043812568742e-05,-5.467161665715463e-07,-9.841802104626302e-07,-3.327973813490532e-06,7.633071110720117e-06,-4.363849952513201e-06,-4.0266012506604974e-06,8.783534602817099e-07,2.88230374463207e-06,4
1.0528698036413551e-07,-1.4741086303630194e-06,-5.5152361798340354e-05,1.1947007023257572e-05,-1.0460197062433328e-06,-1.4820149299052502e-06,-1.7414532875075473e-06,-8.094228099382363e-06,-4.972852228825778e-06,-3.18319341837165e-06,2.5675148894233635e-07,2.337921720837957e-06,4
-2.6372459805323897e-06,-5.948164461308602e-06,-4.437050749796946e-05,1.2254007863139058e-05,-2.05635016912956e-06,-2.4260989249816018e-06,1.4145271594807925e-06,-7.475374382665344e-06,-4.847384764301246e-06,-3.950493197451713e-06,-5.586131416638085e-07,2.2844573314944167e-06,4
-2.13201024978726e-06,-5.2078655636609214e-06,-2.6464671789521695e-05,9.090575454780259e-06,-2.1200644630754823e-06,-2.6268845467386287e-06,1.4633919521283126e-06,-2.9142168293098027e-05,-4.3549900546205325e-06,-5.353580214837001e-06,-7.424598382126045e-07,1.7835262084503367e-08,4
2.4871528092306893e-06,1.0418754268569146e-06,6.196490190807246e-06,6.834730959146163e-06,-1.1957326231819369e-06,-3.1494847102243056e-06,-6.266601476978364e-07,-7.600563551343886e-05,-2.2771028514625207e-06,-4.383634894740857e-06,-7.043325325313371e-07,-2.7688513693924142e-06,4
4.7187162438742845e-06,4.981602573024342e-06,3.865529216181489e-05,8.359466008723994e-06,9.151301518240977e-08,-3.1614803229897696e-06,-1.257216997277846e-06,-0.00011894201996742675,6.732964917045443e-07,-1.5543697854074354e-06,-7.082777082142295e-07,-4.739296178752296e-06,4
-2.0730175967719716e-07,4.8063514684083825e-06,5.530503444590977e-05,9.240162031266455e-06,1.5766057083119593e-06,-1.1565000335235721e-06,-2.556071518544807e-06,-0.00014000241174759025,2.6923696457990165e-06,2.7018651319941835e-06,6.224329736072735e-08,-5.2383122554021445e-06,4
-6.710295775581349e-06,3.93252274213855e-06,5.763841330112578e-05,4.880231746054362e-06,1.7175098211560258e-06,7.975083846396618e-08,-5.119249008717041e-06,-0.0001299908240994152,2.8931016750116176e-06,7.804140595788889e-06,-6.859612550673671e-07,-3.2890532375002344e-06,4
-1.2255297107317216e-05,1.6421595249641927e-06,4.750394309585111e-05,-2.188772137623824e-06,-2.3059671537994045e-07,-1.5160343407424463e-07,-6.888056031365563e-06,-8.157520006061084e-05,2.8144930189351894e-07,8.570459463203635e-06,-2.1777108685936985e-06,-1.4971299935474983e-06,4
-1.6969150477485354e-05,-2.2413538834833407e-06,2.4220250886010377e-05,-8.856569789671625e-06,-2.263653391768337e-06,-9.997038826110058e-07,-7.5582247100301476e-06,-1.3776910036913426e-05,-3.071754027273608e-06,4.300190152237781e-06,-9.662491722831593e-07,-2.15864622150007e-06,4
-1.3402139104949608e-05,-4.630078663020849e-06,4.0607646347426145e-07,-1.81420372577569e-05,-1.5592108222170993e-06,-1.979825815267868e-06,-4.108141749537864e-06,4.134330679005027e-05,-3.6950860441219513e-06,2.323687482564523e-06,1.0025700566851613e-06,-1.6679342986943022e-06,4
-1.1710255027855842e-06,-3.3199448251100834e-06,2.5995449401467123e-06,-2.8175976781075647e-05,1.4657520443619051e-06,-2.75324448116923e-07,3.1483700034385174e-06,8.807962780509537e-05,-8.586352893030454e-07,5.749600116483609e-06,1.258953244780913e-06,6.540692382721739e-07,4
1.1213190847663606e-05,1.0327583025209937e-06,1.9345597380214582e-05,-2.9722371388481025e-05,2.898444194383089e-06,2.730621766636282e-06,9.816448446605697e-06,0.00013451626653092564,3.744762142896006e-06,8.807014465298571e-06,5.380401626671582e-07,9.292024929120774e-07,4
1.7962923127792687e-05,4.902100373132768e-06,3.9048740745393875e-06,-1.9546134832874716e-05,1.4738788607821248e-06,3.082523291182261e-06,1.5875177761849077e-05,0.0001529513042858423,6.929712335372055e-06,7.149287074882247e-06,7.408015180890102e-07,-7.964834441982506e-07,4
1.6436929783206254e-05,3.2006868713514963e-06,-3.96522173095786e-05,-2.6007680062364365e-06,-4.134609995145384e-08,2.6663214443077115e-06,1.9573461040753298e-05,0.00012568367686695286,6.1442966666296785e-06,4.287149675995373e-06,2.225930355945514e-06,-2.430563387579711e-06,4
8.746597411173002e-06,-5.473847748878968e-06,-6.44894925681656e-05,1.2602171807776282e-05,1.260232717136955e-07,3.1263105044228105e-06,1.6881034499271132e-05,6.521782543819183e-05,1.377135017033112e-06,4.620117963959674e-06,2.172590066159746e-06,-3.331830169160065e-06,4
-1.46075844014316e-06,-1.252416044301681e-05,-5.271069784447248e-05,1.9186812156190114e-05,7.165365940742958e-07,2.6269183984073655e-06,9.014937508049083e-06,-1.357197014898535e-06,-2.8964281393258185e-06,6.923734797431501e-06,-3.033426191772876e-08,-3.7155617282616397e-06,4
-9.452871311123278e-06,-1.1833445548632451e-05,-2.3115093433361855e-05,1.8560056353839267e-05,2.864212169160122e-07,1.442135157632209e-06,-1.7243773606877952e-06,-5.646062432524592e-05,-3.3026708291949418e-06,7.926612060917548e-06,-1.8091567321651891e-06,-3.278295030095082e-06,4
-1.0015883819864862e-05,-1.0866257692365031e-05,-3.210443153495574e-06,1.617444006650942e-05,-8.76392834188315e-07,-4.841731849662671e-08,-1.4056497421933381e-05,-9.609003475330728e-05,-4.290337823644702e-06,4.364995860209102e-06,-2.5791621329718624e-06,-9.543718703221719e-07,4
-6.1932519639722125e-06,-9.846790863919848e-06,2.9515452761675685e-06,1.4192287291286468e-05,-2.2801679681662273e-06,-2.391362913588635e-06,-2.2924465588966956e-05,-8.03133073014918e-05,-6.771587354254573e-06,-6.255945989029503e-06,-2.9468003673397835e-06,2.8287276290648305e-06,4
-3.8422273150122145e-06,1.1201740916531175e-06,1.3890251369035112e-05,1.2196780229489457e-05,-3.2009494554363266e-06,-3.956719319321519e-06,-2.3873846450278196e-05,3.862663795664866e-06,-5.0009635800463146e-06,-1.736230527177037e-05,-1.926384654459819e-06,5.849882914220838e-06,4
-3.4822284491774492e-06,1.5744663282694855e-05,2.8861018693841702e-05,8.514917246926891e-06,-2.187313564919298e-06,-2.5979997716622333e-06,-2.0679816734463978e-05,5.527485737784793e-05,4.0314377364057033e-07,-1.8887896209444436e-05,2.7645009369801427e-07,5.431112077823613e-06,4
-1.9082103713342894e-06,1.8686590529787864e-05,2.696943573991575e-05,2.602287498303676e-06,8.482005851369707e-07,4.1996769506617786e-07,-1.851251950413352e-05,3.301821606389514e-06,4.488292874656543e-06,-1.240531797744703e-05,1.2753517536479456e-06,2.0748150880902705e-06,4
2.0637175476963137e-06,1.2292065239256114e-05,1.244281916226509e-05,-3.581312641980064e-06,3.156247003731491e-06,1.0285832435135183e-06,-1.5474170818494194e-05,-6.681927844575487e-05,5.125099201717934e-06,-5.231890464614701e-06,1.1231418010243293e-06,-7.961492385482606e-07,4
4.307091009986789e-06,8.700369925930811e-06,5.832011903681111e-06,-8.8465291755197e-06,2.5006078562634187e-06,-2.6417034638728395e-07,-7.3729297839460565e-06,-5.600723697149807e-05,3.5047253815209762e-06,-1.3145778432177094e-06,8.264761712075213e-07,-2.087822538809405e-06,4
4.998073515238671e-06,7.870717065280154e-06,1.4785911954656437e-06,-1.2655868041474176e-05,9.966781980000678e-07,7.510111552415558e-07,6.549471291707825e-06,7.3330528405619676e-06,3.051880695312709e-06,-2.1194320189041648e-06,-2.3449635168641733e-08,-2.272497090189724e-06,4
7.980094346098552e-06,5.293546900185247e-06,-8.078462774243134e-06,-1.3643325991633843e-05,2.9025250213692935e-07,2.714309543581652e-06,2.1849614214233487e-05,4.7336409898854044e-05,3.481765765812707e-06,-5.426389697317183e-06,-5.79493377670518e-07,-2.016205648431259e-06,4
1.18921760426321e-05,4.437311802083749e-06,-1.0006400055871648e-05,-1.0577038901278438e-05,-8.027440954064682e-07,1.8672522483226165e-06,3.216806997778176e-05,5.5883103310423306e-05,1.4561262448675636e-06,-6.765418045010021e-06,-2.749331105388659e-07,-1.2646825515417227e-06,4
1.4766842385014395e-05,3.3008342662085025e-06,-4.2276697398372885e-06,-5.2787694684909724e-06,-1.0967337371653642e-06,-4.082698491915424e-07,3.507500228869025e-05,5.7356118478592196e-05,-2.17186319047745e-06,-4.140427064831452e-06,1.4691909090392003e-07,1.3152368135250505e-06,4
1.4577226608172425e-05,-5.231249221969669e-06,-1.6172145142303465e-06,-2.428530540739991e-06,3.803029275417341e-07,-1.3336047860447096e-06,3.072530496318006e-05,3.457549172694065e-05,-4.045098221372868e-06,-2.7693354955185657e-07,2.2710173732581947e-07,4.551253031745322e-06,4
8.63531501776776e-06,-1.4937438602629785e-05,-9.721404445774655e-07,-1.980517964974706e-06,1.371862360382456e-06,-1.2311947763971668e-06,2.0145682841383478e-05,-2.8615628663089942e-05,-3.6990178977503404e-06,2.313555060460914e-06,2.722189448546889e-07,7.645923280071207e-06,4
-2.7899096055939257e-06,-1.6460236050764193e-05,1.3982148725652164e-06,-3.877021986739342e-07,4.181395164322581e-07,-8.843415872444169e-07,5.5438253620277976e-06,-8.847303504212935e-05,-2.33818451456516e-06,5.6673316491837535e-06,2.3602512383661917e-07,1.1597396175959207e-05,4
-1.469166175666239e-05,-1.2160690103460055e-05,3.531551091998785e-06,2.7073084201751473e-06,-1.4015126308230891e-06,-1.3706510333802816e-07,-9.475761812290934e-06,-0.00010455151522467847,-6.364841576562555e-08,9.765846330463665e-06,8.114661728013508e-08,1.3049847852673702e-05,4
-1.9404626866146972e-05,-6.894229886672918e-06,3.8346000742739835e-06,5.702056087307106e-06,-1.693834638765149e-06,9.242391653960787e-08,-1.9176771521670956e-05,-8.039418484350316e-05,1.8733116916620453e-06,1.2392043185471137e-05,1.0258702876077367e-06,8.160506343158587e-06,4
-1.9732140461848397e-05,-3.3453277112749285e-06,3.1983222104841486e-06,6.241676349475345e-06,-8.20910194643403e-07,-1.304973890711881e-06,-2.2256627050623602e-05,-4.2886983203802766e-05,1.7023144564010353e-06,1.3787528571921445e-05,1.3941108213406539e-06,-3.6770398080003413e-07,4
-2.334587271463477e-05,-2.562729603802128e-06,2.011302603526173e-06,4.539826647800965e-06,-1.0316362696615018e-06,-2.3987575454163377e-06,-2.3412261135365195e-05,-3.5269358431248593e-05,9.223628118089355e-07,1.2032661752079642e-05,1.3350176964262043e-07,-6.5434312349506855e-06,4
-2.673119790295239e-05,-2.3593763227493104e-06,3.790620278363125e-07,3.0051392813071137e-06,-1.2076436413709823e-06,-2.1969219124614512e-06,-2.2617111554059136e-05,-3.667361232313395e-05,6.531591562259217e-07,6.679912088086088e-06,5.016852563253281e-07,-8.330393445095104e-06,4
-2.2969606167401538e-05,-8.274221752159434e-07,-3.498961958866152e-07,1.382114746549991e-06,-1.5351339523397356e-09,-3.3627782655129852e-06,-1.6397565104399394e-05,2.045870953347583e-05,-2.0563357938193884e-07,2.7027946281894196e-06,1.568649595058894e-06,-9.917299204602567e-06,4
-6.039807270978435e-06,2.9214398602219598e-06,-1.5383648055652918e-08,-3.359896067056721e-08,1.5956458528839374e-06,-3.103525681361461e-06,-6.927974931259148e-06,0.00010724685784068047,-1.2440883067688558e-06,1.6877117356375344e-06,8.745495109608796e-07,-1.3605901852567097e-05,4
2.0584343666372698e-05,7.68368689761963e-06,2.0306836596327208e-07,-2.4618076665691987e-07,2.567548156256245e-06,1.4119577798720596e-06,2.03421636596294e-06,0.00014935067666246006,-2.1851843618190146e-06,1.635476349748791e-06,8.225167272439834e-08,-1.4465496569453633e-05,4
3.634829490553677e-05,9.99405649769672e-06,-7.53677901267286e-07,1.908268602732511e-08,2.1200106169270674e-06,4.143854336003809e-06,8.718494593047465e-06,0.00014339260122852386,-3.293409868157761e-06,6.941547687124702e-07,-4.5342960898170453e-07,-1.0111037906924233e-05,4
3.094592348313385e-05,8.796647604702686e-06,-2.6580956516358126e-06,6.993139669751874e-08,-3.7880531388693125e-07,3.7243861665195576e-06,1.0191307028151527e-05,0.00011589034370419709,-2.7775243568945e-06,-3.5057260641253882e-06,-1.5763971966009886e-06,-5.609737407635963e-06,4
1.6505585678216197e-05,5.075268252605966e-06,-3.663358722366808e-06,-5.205600923672351e-07,-3.370032240383999e-06,4.0413741468942e-06,6.748758691660393e-06,5.8681398800262056e-05,1.5510788330411862e-07,-1.0463881390750333e-05,-2.2742142258146356e-06,-4.199262935642665e-06,4
6.27983411558039e-06,1.6528107994523977e-06,-3.4702452188379394e-06,-8.270440966229846e-07,-3.489873830855412e-06,4.320675152219185e-06,4.515538382126162e-06,-3.6909455143530546e-05,3.1969668222955715e-06,-1.5634811572166976e-05,-2.18343850845701e-06,-4.244802322667437e-06,4
2.2352755522761732e-06,1.7546643976357802e-06,-2.369280342271656e-06,-2.0986218572626324e-08,-1.1449885153611355e-06,2.9837224029824257e-06,4.88293464345387e-06,-0.00011555253407248926,4.801522605471642e-06,-1.4052214707789634e-05,-1.926275767268552e-06,-4.619108800236356e-06,4
4.674308007615542e-07,2.8996824397141113e-06,-8.113836720758086e-07,3.326553425768828e-07,1.1893144003865235e-06,7.167810602795484e-07,3.6633584669529775e-06,-0.0001187255936133573,5.222117995944626e-06,-7.565285296403247e-06,-9.200211347886424e-07,-4.999242052371987e-06,4
-4.094055714068812e-07,1.5197960714030635e-06,-9.655038740017375e-07,-1.076420946294768e-06,2.651086941363925e-06,-3.6656486208368553e-08,2.879990229451692e-06,-6.952882632180856e-05,3.171028192664381e-06,-3.5081566862005464e-06,5.899653157839994e-07,-2.627059858657132e-06,4
-1.4582061318950559e-06,-7.36978778281483e-07,-1.638714420200794e-06,-2.6517326387767436e-06,2.1441478356470463e-06,4.273456379445366e-08,4.447570113281196e-06,-1.994231542934655e-05,-1.0492737055120622e-06,-2.5828160079681402e-06,1.26093804391571e-06,6.359973435965381e-06,4
-3.2784961124325966e-06,-3.218053223392059e-06,-4.527896999373173e-07,-1.6090288091822501e-06,1.2066211506522165e-06,-1.9752714826637486e-06,3.949919980700572e-06,4.634754320746442e-06,-3.86648513631473e-06,-1.1653988642754106e-06,8.726046398909418e-07,2.0266526485150132e-05,4
-4.364770366768524e-06,-6.252624374810236e-06,1.2116616067912919e-06,7.789027003386334e-07,1.7416068228505654e-06,-3.99353615349878e-06,1.8793986646757874e-06,-7.094383027996344e-07,-3.948986707545641e-06,5.187079393535358e-07,-5.347902095184853e-08,3.0400598444653408e-05,4
-6.063498403480968e-06,-6.043030424845075e-06,1.8995597421941311e-06,9.253015081317084e-07,2.235193121613307e-06,-3.86336552073847e-06,4.586571917086322e-07,-1.8805153693372296e-05,-1.3966755714327495e-06,2.1258080932908974e-06,-1.5481791918279953e-07,2.953957820672372e-05,4
-7.641119967138688e-06,-2.5992158601418094e-06,1.8161146424190562e-06,-5.7887966991874606e-08,1.4664521553656692e-06,-1.7310121624126765e-06,-1.9871046473829178e-06,-2.34068288034939e-05,9.358284901169918e-07,5.15861813859242e-06,2.951801537520585e-07,1.7378990156953935e-05,4
-6.177069510824018e-06,-7.742569874254391e-07,3.0939893997390275e-06,5.671203767044477e-07,-4.313697802017535e-07,9.06637429717508e-07,-4.019707027108641e-06,-6.819554675863559e-06,-2.773693877516121e-07,8.60696955732402e-06,-2.8957377680879217e-07,-8.058846370066348e-08,4
-3.1418475579046487e-06,1.0896868043243036e-07,4.557620390004024e-06,1.513143465394015e-06,-1.7878810592122792e-06,-1.0607039248385247e-07,-3.167243948084391e-06,1.4671108122922032e-05,-1.3284926877594111e-06,9.062662920347088e-06,-1.4094469644487222e-07,-1.2362326601620378e-05,4
-1.072504136138691e-06,1.8947941696530414e-06,1.964698061570197e-06,1.140257339161968e-06,-2.416458674368973e-06,-3.1519331753124497e-06,-5.746426948641223e-08,2.1812443587479432e-05,-5.351839353758757e-07,6.713267551613826e-06,2.104913299832982e-06,-1.3493020360300542e-05,4
-1.918747193882148e-06,2.0830930161716234e-06,-1.5009030358810415e-06,1.4707340745891973e-07,-3.7407994956499942e-06,-2.794131668170967e-06,1.9638138632118863e-06,1.5673185230868604e-05,-7.911125343508543e-08,4.672159274170995e-06,3.3677333131866268e-06,-7.671677991772167e-06,4
-4.202482769242358e-06,1.1451476948646422e-06,-1.6468394245743132e-06,-4.2607539042018596e-07,-3.656894731176627e-06,-1.1838000881138363e-07,1.542672170188822e-07,9.281281516663274e-06,5.802472626684908e-07,3.1786627504070954e-06,1.073215330907243e-06,-1.8179990033216096e-07,4
-5.399305007550117e-06,5.671423752881146e-07,-4.5015496561026506e-07,-1.7284819864185414e-07,-1.7969181146805956e-06,1.410951551142727e-06,-3.011598157084108e-06,6.841837956949727e-06,6.554383400002097e-07,8.78433267636501e-07,-2.2671185827885285e-06,5.696838003925759e-06,4
-7.118236239437564e-06,-2.112957035399276e-06,-9.8782980992997e-07,-9.66227903716832e-07,-3.7696210891324756e-07,1.0530428816250999e-06,-4.833126622759623e-06,5.115979497582133e-06,1.20335424493415e-07,-2.196680778523613e-06,-2.627756201438878e-06,5.6947469945049205e-06,4
-6.165988589187965e-06,-5.165487567716435e-06,-3.85528431187835e-06,-3.5900437059647845e-06,1.3366790119283539e-06,8.72474558079531e-07,-4.879439192225591e-06,3.6352164861010106e-06,2.7357080828161834e-07,-4.620969670701607e-06,-6.889235833027937e-07,1.3257702607345366e-06,4
2.1297178884443855e-06,-3.3513931211086342e-06,-3.826476907286454e-06,-4.353937512215659e-06,2.5797769320109653e-06,2.449523214184822e-06,-2.6879291540646792e-06,6.340918956884466e-06,5.787096872753301e-07,-4.362866247254998e-06,7.393473594277988e-07,-3.1165309067280018e-06,4
1.2440132303686027e-05,1.6795260886468358e-06,1.2790596672612301e-06,-1.3940377389197886e-06,2.4911049893669956e-06,2.9001235352652356e-06,1.009364466593331e-06,1.3135777855173626e-05,9.974035807984008e-07,-1.9754100722810145e-06,1.2189339350427682e-06,-1.0750266858630863e-05,4
1.59152232649361e-05,3.8648265900735995e-06,5.141996621802579e-06,2.8831617754873363e-06,3.452755618517487e-06,2.0579631039792075e-06,5.166953322429193e-06,1.655147662081496e-05,1.357692744321431e-06,-9.071902425298925e-07,5.935350389266198e-07,-2.2959078929664882e-05,4
1.0269838181814287e-05,1.811542347217743e-06,4.27026843199821e-06,4.698812988716082e-06,4.08701130265743e-06,2.3170457983661955e-06,6.925679807511122e-06,1.2764606439099763e-05,7.078262206193412e-07,-1.5243859744997625e-06,-9.732283106981642e-07,-3.017614467857092e-05,4
1.0698218270069922e-06,2.543525026017952e-07,7.21562964501406e-07,2.4190657741387978e-06,1.2938760607204847e-06,1.2977161514780102e-06,4.07726233301432e-06,4.864544156075763e-06,-3.102259027857002e-07,-1.2421459498123845e-06,-7.960464626543025e-07,-2.3653961878894912e-05,4
-4.8185852199786455e-06,1.3294815396659066e-06,-1.7511028233129183e-06,-2.06042563829845e-07,-2.2913896383152683e-06,-1.005885836548546e-06,-1.9246405375870086e-07,-2.748618387729751e-06,-8.516012180262313e-08,-9.220318268263931e-07,2.044993568738828e-06,-7.794415324558389e-06,4
-4.84378252299785e-06,1.4480828948621761e-06,-1.4899710221807126e-06,1.2970817058485274e-07,-2.946698729521625e-06,-2.454435067079537e-06,-2.387184787348134e-06,-6.53082801359261e-06,-1.5549916314683358e-07,-2.0024437588898054e-06,2.778939615275813e-06,4.998927717671665e-06,4
-2.3543124953350318e-06,-7.435509443928847e-08,-4.4199302118469495e-07,1.347323029655644e-06,-1.529897617042654e-06,-3.617758072801533e-06,-2.009119637153445e-06,-6.5095916672042856e-06,-2.124358394196123e-06,-2.470353613627537e-06,-3.6381481900352925e-07,9.478390459716263e-06,4
-1.8059837594732579e-06,-8.270868212292589e-07,-2.3396092612198207e-07,7.483450835267168e-08,-1.2291377610795318e-06,-2.888542335363476e-06,-1.103838503587792e-06,-6.128360299289022e-06,-3.230127446642454e-06,-1.686853825809905e-06,-2.2977531763242233e-06,1.0968757058323031e-05,4
-1.6292723090388625e-06,-4.305383992680692e-07,-1.2701478747118039e-06,-3.0685595403218407e-06,-2.7925672441771776e-06,-4.683515261404801e-07,-1.3857813211926532e-06,-8.360980919944864e-06,-1.4765291322484676e-06,-5.75000103154763e-07,-1.90047581121756e-06,1.2497871636224982e-05,4
-3.1355155161017285e-07,9.23442391184635e-08,-1.941252822114203e-06,-4.021865056287197e-06,-3.7068203290702785e-06,8.384116061700017e-07,-1.8169168538397112e-06,-1.1513272478964155e-05,1.465539728625058e-06,1.0428835445659857e-06,-1.013708918859954e-06,1.1978320714545812e-05,4
3.0665917565513127e-07,1.8193615727851934e-07,-6.357432886068661e-07,-2.26724042876449e-06,-2.587013346676987e-06,8.5849403173367e-07,-2.1333371392817195e-06,-1.0738178888681069e-05,2.5781152132863064e-06,1.5699175881195137e-06,7.839368496711542e-09,1.1163379793261586e-05,4
-2.5257343773413576e-07,-1.6689081257816136e-07,1.0121373074410892e-06,-6.554765352929994e-07,5.878867078452289e-08,-5.281944952631985e-07,-1.7585427216592259e-06,-6.075904215598631e-06,2.163083898182193e-06,4.0293888081275775e-07,-1.4210138225587493e-06,1.2088064429005547e-05,4
-1.3253541318826386e-06,-1.5453144385305555e-06,8.98344650908438e-07,6.146516031055345e-07,2.5011819479536534e-06,-2.2696128092013203e-06,-7.258972541834734e-07,-2.827679916378099e-06,2.551497656917007e-06,3.097991924384466e-07,-3.551733981679454e-06,1.2435727955842275e-05,4
-5.319683159538076e-07,-2.2070572817141453e-06,-9.779398804481963e-07,2.749502680536123e-06,2.714813943533231e-06,-1.9348519589739645e-06,-6.684441188693134e-07,-3.83280438917297e-06,1.7758397796530404e-06,1.1136229443942147e-06,-1.608772572005287e-06,1.0983736530318044e-05,4
2.5418039083187382e-06,5.085224034654915e-07,-2.279015498731153e-06,4.129467596850346e-06,2.2102143866641356e-06,9.379124394895627e-08,4.4120605359135816e-07,-7.416752570079293e-06,-4.7448649557002956e-07,1.276141885062427e-06,1.6469789100491658e-06,8.510976647403892e-06,4
4.376363559840307e-06,3.688735270851102e-06,-1.5898374872503304e-06,2.5066101053672455e-06,1.97704419448344e-06,2.533407599371662e-06,2.7531733871620652e-06,-1.1558598100810703e-05,-1.2591147404319157e-06,1.726231046108949e-06,2.602431574145886e-06,6.385813310722988e-06,4
3.58213516933792e-06,3.982295947758079e-06,4.894253855264729e-07,1.0446942765672248e-06,1.5902236500913214e-06,4.447461506810864e-06,3.320502517239361e-06,-1.4483113586315604e-05,-1.965266043765482e-06,2.4738743561180767e-06,2.8540030305500686e-06,4.944268469891641e-06,4
2.168497070588149e-06,3.0239091084394157e-06,2.929089039469299e-06,3.2453908077010655e-06,2.722652225888657e-06,3.832796997583821e-06,2.8339826099901377e-06,-1.366475879560726e-05,-3.3669226030184474e-06,2.79547873494667e-06,2.8986264742968475e-06,3.4720153941668487e-06,4
2.0007914342367e-06,1.910153083535531e-06,3.6631702519765846e-06,5.412071441432239e-06,3.2549542403664343e-06,1.3987654987687487e-06,1.3109485963627396e-06,-4.177372513411596e-06,-2.403620168851936e-06,1.8206545178809594e-06,1.7000689018307426e-06,3.0445368943483364e-06,4
1.3548201819428345e-06,-1.3702684721350884e-07,2.4782330084036567e-06,3.817867143538641e-06,8.35549616179863e-07,5.45713830091452e-07,-6.175461756692651e-07,1.5865999966900765e-05,-2.9664730636197987e-07,-5.193244557382473e-07,4.257154609517319e-07,1.7134281150868855e-06,4
-4.2488576952302833e-07,-1.8854554448389685e-06,1.017738891641363e-06,4.597757073131175e-09,-1.054422190503558e-06,9.789657294476145e-07,2.3825082771301872e-07,3.578170276635354e-05,-1.0802610627748806e-06,-1.1886726340556797e-06,8.69490063593319e-08,-4.042717102109026e-06,4
3.982817708152512e-07,-2.12802977911639e-06,1.0892964293971466e-06,-3.222874162668756e-06,-8.101495461971827e-07,8.283349400565162e-07,2.591996904884422e-06,4.3394816116659934e-05,-1.7984241478188344e-06,1.3502452678221094e-06,2.631873765499243e-08,-1.2529821124906596e-05,4
2.0155517230632917e-06,-2.1045568641135434e-06,3.3306229391235912e-06,-4.267096757538161e-06,-4.471689837038133e-07,2.987245659813901e-07,2.6285050819108607e-06,2.8707974424460616e-05,1.3764287692450112e-06,3.2560696310548324e-06,-9.316699332776925e-08,-2.131264501903835e-05,4
-1.9128046380647123e-06,-2.910892031290084e-06,2.1032845485678773e-06,-4.882780831038354e-06,-1.2038619521640545e-06,-1.4107218601856273e-06,-6.168235796606762e-07,-6.859035040992566e-06,3.1804278688344274e-06,1.354651099100539e-06,-8.710219449621138e-07,-2.7977457119970376e-05,4
-9.901397309541125e-06,-5.131360804577942e-06,-5.79264615027512e-06,-8.193109176100912e-06,-3.2897461474200443e-06,-4.327017825161804e-06,-3.5050021388064485e-06,-2.636610450320587e-05,3.833498700669887e-07,-1.8677090311290639e-06,-2.506482833585834e-06,-2.9798643908333332e-05,4
-1.2573663116323523e-05,-7.087734669762589e-06,-1.0668735638766217e-05,-1.1417600203637118e-05,-5.542602300029321e-06,-5.3928005025949955e-06,-2.4577734939599173e-06,-4.134819134490736e-06,-1.5967614214675239e-06,-3.5974091727805827e-06,-2.914375221080876e-06,-2.8905901490019676e-05,4
-6.116223415254267e-06,-4.161578362088773e-06,-4.721838194287498e-06,-9.726269894931682e-06,-5.373370699948655e-06,-3.035273096784074e-06,-5.467678210530595e-07,3.1161886589216304e-05,-4.99265950806496e-07,-3.879748971816942e-06,-1.35458260523632e-06,-2.8555059528038152e-05,4
1.341278562662963e-07,1.8223068744029523e-06,3.3957322528182263e-06,-4.351448212169658e-06,-2.5089471353834736e-06,3.5402333269468714e-08,-9.621776214824949e-08,4.198448575090746e-05,8.95674597201602e-07,-3.0829192765925116e-06,-3.8942141054581065e-07,-2.9789733953346398e-05,4
2.525829261904585e-07,4.54151942873683e-06,2.094893651995073e-06,1.9354397102140333e-06,-2.2433330445350246e-07,3.2326590493796037e-07,5.748938924692536e-07,1.9228687126495052e-05,2.416863696700738e-06,-2.246070469988695e-06,-5.464659380913606e-07,-3.203470960033623e-05,4
2.0126014242077688e-07,4.641780637891232e-06,-4.232933376408092e-06,6.813715354379776e-06,9.289131119204208e-07,-1.113091129987612e-06,5.20698580517288e-07,-1.7792052104702275e-05,4.270941396552349e-06,-2.1892293058982954e-06,3.1649703110378556e-07,-2.2745947758811722e-05,4
1.8861359790748085e-06,4.235999368740105e-06,-4.4772663904972614e-06,8.162355136868675e-06,2.92628438426269e-06,-8.527423114329298e-07,-1.228257439177506e-06,-3.8718116206267215e-05,4.240567330879075e-06,-1.0942763158116691e-06,2.2075820876264763e-06,1.4245279486497202e-05,4
2.229054245714043e-06,2.8501613701144952e-06,4.456638862057469e-07,7.853988242567748e-06,4.4864939756789604e-06,8.160350146454294e-07,-3.1381187711925315e-06,-2.8398360071283917e-05,3.149131262223665e-06,1.31241656321043e-06,2.923065078388598e-06,6.37447296880975e-05,4
2.247908973680544e-06,1.1675393186736414e-06,4.32186411696655e-06,7.17361380898865e-06,3.7285303666330832e-06,2.4304873452460775e-06,-3.778667022051876e-06,-2.2115557629236885e-06,2.706788075216163e-06,1.4332351346585116e-06,1.0721356845444496e-06,9.076790645743829e-05,4
4.531697191080724e-06,-6.130943590791756e-07,6.316838211638152e-06,5.9091491375415e-06,2.056679228806723e-06,2.984368314436865e-06,-2.930055239731368e-06,7.928174395675802e-06,6.189912501766806e-07,-5.581922442428031e-09,-1.3469733788987203e-06,8.687343509123094e-05,4
8.648802816846871e-06,-6.817633522154873e-07,6.027414325728115e-06,4.816440110996944e-06,1.812738772542005e-06,1.574134005962101e-06,-1.4575342885737514e-06,-6.2069251406677745e-06,-2.6414102406919375e-06,3.5640575333187577e-07,-1.5344473049511697e-06,6.47795988470353e-05,4
9.386198201652178e-06,9.952536310082997e-07,3.4256770354994783e-06,3.216572981350237e-06,1.7976335793057682e-06,8.182083501297865e-07,4.394605903274827e-07,-3.1010851951522685e-05,-3.5133163863132068e-06,2.2567647026039017e-06,-4.235078215464417e-07,3.4982763009407865e-05,4
3.437917745909064e-06,5.091798782159868e-07,1.3185271429600017e-06,2.1364851841027966e-06,5.294110539710505e-07,1.6804628787871264e-06,2.706713785140604e-06,-5.101214329109663e-05,-2.8069717579563742e-06,4.77293490325592e-06,-1.400815888594782e-07,1.1588438952014302e-05,4
-3.619386249777186e-06,-1.0111402656109248e-06,1.0770446049279848e-06,2.1256732289397654e-06,8.029740195993529e-08,1.1210832368210849e-06,3.216875611536083e-06,-5.707837102741843e-05,-3.898314597124822e-06,3.860260794807741e-06,-7.046571185316669e-07,2.9909331841374757e-06,4
-5.125412551830728e-06,-8.991891003249362e-07,1.3437547605517667e-06,4.0548168573135665e-07,-1.0561581006996903e-07,-6.077984278632246e-07,7.153836335003807e-07,-6.539764657671111e-05,-7.6275711089845515e-06,-1.0236087925982763e-06,-7.150561629529772e-07,-3.4457849134178345e-06,4
-3.045686687848604e-06,-2.111012178800332e-07,6.475931741886177e-07,-2.6918445064617025e-06,-1.825283021568923e-06,-1.3611053688740429e-06,-1.7647126670757763e-06,-7.452723177729137e-05,-1.1006104863766505e-05,-3.7647676775092026e-06,-6.617156935674491e-08,-2.0522747985767397e-05,4
-4.521731352990611e-06,-6.571087138876706e-07,-1.11575253044151e-06,-5.483907449574675e-06,-3.1801135979546213e-06,-2.125974947020663e-06,-1.62310765373871e-06,-4.018897300132708e-05,-1.0050923652700037e-05,-4.432164937286806e-06,3.0503919341582173e-07,-4.157738619031514e-05,4
-9.968346575445048e-06,-2.497684958456927e-06,-3.3789712963672407e-06,-7.821047867293446e-06,-3.008753415360499e-06,-3.6517181902359133e-06,3.7823498173038675e-07,4.363636085217005e-05,-3.0289232587808596e-06,-4.911255493551068e-06,1.605546034145164e-06,-5.4787282812601194e-05,4
-1.0815071555295496e-05,-2.1253387245686747e-06,-4.390793977547461e-06,-8.038200417199878e-06,-2.060128391616014e-06,-2.9654909701389086e-06,3.615228580392889e-06,0.00011754877836540527,7.733443764025853e-06,-4.419882694551263e-06,3.4094339769748556e-06,-5.8785935583157496e-05,4
-2.976582079350468e-06,1.3823297325768038e-06,-4.414060113962966e-06,-6.1041284553690795e-06,-1.006999206401117e-06,1.2515531292976126e-07,7.37323690948805e-06,0.00013610382159729255,1.4823806169184984e-05,-2.9399772703336096e-06,2.845623313434354e-06,-5.707676433176421e-05,4
7.755589130330877e-06,3.9199009019301795e-06,-5.975467975979324e-06,-4.010991176229159e-06,5.6379484547854465e-08,1.7503650474295596e-06,9.983971710740976e-06,0.000121163537456035,1.3466332794487027e-05,4.10612529631711e-07,7.327835234453511e-07,-5.14565474797691e-05,4
1.5486530529516227e-05,3.8467257055546485e-06,-5.63978305425999e-06,-1.3352768508975505e-06,1.2866316877276402e-06,2.525451756196325e-06,9.089946597148036e-06,0.00010475839947510054,7.63025831736012e-06,3.829348083212979e-06,-6.061600139159118e-07,-4.5254665524795976e-05,4
1.847718379318406e-05,2.3536675443083852e-06,-1.5410393099300112e-06,1.31885253733604e-06,2.256180753894491e-06,4.200112969300207e-06,3.4199250337399143e-06,7.672508368326174e-05,2.811971418945195e-06,5.859512565044189e-06,-1.131446652058223e-06,-3.872407262408405e-05,4
1.6193710560887682e-05,1.3465266507068022e-06,1.7034200808451047e-06,2.1237665785463883e-06,2.3724411805549966e-06,4.737626788794127e-06,-3.4009188049375832e-06,3.825464744288076e-05,3.7825526904360535e-07,7.4576256464097035e-06,-1.4532398140323773e-06,-2.3757251724983167e-05,4
7.473180641025978e-06,4.0925834335242015e-07,3.7333643627435567e-06,2.7901473011614044e-06,9.969857898531165e-07,2.9690484499970503e-06,-7.304282969588995e-06,-3.549892567338464e-06,-1.164237316439538e-06,6.877837578018545e-06,-1.621145915879689e-06,2.9372792812361544e-06,4
-6.368808828552753e-06,-1.940487605325364e-06,4.6766615595377105e-06,3.1411574930707556e-06,-5.47485075451262e-07,-1.9460720395811523e-08,-8.679223520299998e-06,-7.69376500309104e-05,-3.440666661311324e-06,3.666288513600081e-06,-1.1324916451892503e-06,2.9723440335645235e-05,4
-1.774857215271139e-05,-4.228562673948404e-06,3.907009224692797e-06,1.2774783715246419e-06,-3.543448615166592e-07,-2.0507077439389745e-06,-8.378511281847907e-06,-0.00016000595783088046,-6.077497990825688e-06,2.0631360950193856e-07,-8.064107207749805e-07,4.223425710822393e-05,4
-2.0565638645898932e-05,-5.779643365344545e-06,3.4317261948952974e-06,-1.6208618367131105e-08,-8.059269352684069e-07,-2.431621534585783e-06,-6.427820779901632e-06,-0.00016771576137484512,-7.449278945622211e-06,-7.364917370931135e-07,-1.7890469741008156e-06,4.18383442524423e-05,4
-1.5365231314958327e-05,-5.750827993212646e-06,2.1559503108558677e-06,6.005671098377591e-07,-3.442678057280852e-06,-2.4957033365793467e-06,-4.252972931967414e-06,-8.507661528808271e-05,-6.1743657015601045e-06,1.7234084852131025e-06,-2.4697318586112266e-06,4.00904539488273e-05,4
-4.547955781764847e-06,-2.0805796509975267e-06,1.1837975326334057e-07,1.3541682399943364e-06,-3.4035901753725212e-06,-2.2638956275372658e-06,-3.2801368944318987e-06,9.759863503053572e-06,-1.5917145875931054e-06,3.0409588832646684e-06,-1.6414200601582732e-06,3.796332915121776e-05,4
5.5550721923388194e-06,1.8075782120023963e-06,-6.671503398519651e-07,1.7995172061153028e-06,1.575877160486566e-06,-1.263299181572046e-06,-3.6951661432323906e-06,4.778843517398999e-05,4.049013775802312e-06,7.107919277098815e-07,-3.885299294760902e-07,3.7980243786218194e-05,4
7.008869535496438e-06,9.690302502674784e-07,-1.9798080404330054e-06,1.6588436037778981e-06,4.802735525274665e-06,-1.778733692458977e-07,-5.0197781900512265e-06,2.1155989107955252e-05,5.288473432387596e-06,-2.098404449868534e-06,1.0310133390374888e-06,4.9648991264818875e-05,4
1.241454320132491e-06,-2.4893449084225634e-06,-4.171285600510251e-06,1.836329837076772e-06,2.007927510067878e-06,1.1183118893472788e-07,-5.648317378531712e-06,-3.162786500638639e-05,2.04807519572241e-06,-3.2101682358504e-06,2.0577499318681264e-06,5.78367932533704e-05,4
-3.7987944936181657e-06,-3.495053266597253e-06,-4.570938143020687e-06,1.7314539660218977e-06,-1.9059312560899339e-06,-9.60168286864649e-07,-3.0423739310080496e-06,-5.144614490669176e-05,3.982163485986409e-08,-2.745840908163588e-06,1.5203296586501767e-06,4.056459367154516e-05,4
-4.440792886862924e-06,-6.206871004529147e-07,-2.7157052483242765e-06,-6.219189398862593e-07,-2.3206567582140555e-06,-2.9743345787862354e-06,3.5157782249489336e-06,-1.077840455626157e-05,-6.206389702091522e-07,-3.854039333806148e-06,6.444211903727514e-07,7.675950723352302e-06,4
-9.363792094949124e-07,4.067954099512579e-06,3.195914097011429e-07,-2.2292198357696995e-06,1.0405653983379926e-08,-3.4658596439200954e-06,1.0815333561968639e-05,4.684732789198298e-05,-2.206669631933565e-06,-6.94132842320644e-06,5.88959381478981e-07,-2.100564892784078e-05,4
5.6996426143020505e-06,7.641757754160026e-06,3.994682737924339e-06,-1.3585633108682792e-06,1.8791801729942954e-06,-1.6075147220286607e-06,1.5746433587773996e-05,6.497918556371182e-05,-2.4778057065785895e-06,-7.767458401286626e-06,9.65717458386951e-07,-3.8491031426783506e-05,4
1.1498759863596233e-05,8.150666363616028e-06,6.61531172205919e-06,-7.807951706171433e-07,1.65956087912349e-06,-1.760560713219742e-07,1.7467287988509834e-05,4.4019900759481096e-05,-5.601127171577395e-07,-7.472120997717777e-06,1.7326348509851691e-06,-4.437946446343906e-05,4
1.1654612602656042e-05,6.334185013474661e-06,6.754228417275282e-06,-4.7021313467278335e-07,9.13707779419882e-07,1.0280375898315448e-06,1.4352402922368676e-05,1.8649982541875006e-05,1.2753376278038096e-06,-8.666266156112091e-06,1.8210664930142485e-06,-4.189697500343444e-05,4
6.123869796186773e-06,4.805565232027526e-06,5.400859328476092e-06,6.724302775281169e-07,1.5117912022652548e-07,3.4644523613652223e-06,7.5736007910168956e-06,1.1628909958885462e-05,2.105197566349398e-06,-1.0176677267338137e-05,6.900797701651395e-07,-3.597537182812191e-05,4
-3.944146187006349e-07,3.612433703677618e-06,2.726453563275833e-06,1.9275186809957827e-06,-1.4680891465152438e-06,5.378798296029755e-06,1.094620588802931e-06,2.3040186505334715e-05,1.8599148128474905e-06,-8.859692699115625e-06,-6.282585805540405e-07,-2.9969981519120924e-05,4
-4.103301982395711e-06,1.0220281493558738e-07,-1.5994048996956768e-06,2.451174680123992e-06,-2.1984425082178836e-06,5.22223297310459e-06,-3.788548024717603e-06,3.413204648565367e-05,4.079576713447522e-07,-7.95043406101193e-07,-2.2648014300083964e-06,-2.4154019168290354e-05,4
-4.502624227713371e-06,-5.618180426218761e-06,-6.0865606721348484e-06,1.7399600202722653e-06,-4.4415959146152335e-07,2.6252325238015e-06,-6.450008667373746e-06,2.563528267610125e-05,-6.085019732377601e-07,9.543841465011246e-06,-2.513179793364524e-06,-1.701265668079517e-05,4
-2.6845184444438883e-06,-8.933063788834953e-06,-8.744123536364465e-06,4.805936841020532e-07,1.5144558669769613e-06,8.433185844889872e-07,-7.103641023615305e-06,3.3105613775864916e-06,-9.402617135081275e-07,1.403602866646314e-05,5.429630369670356e-07,-7.414377435396332e-06,4
-1.400311443674933e-06,-7.750468514298835e-06,-7.637352036905647e-06,-1.1001366825636913e-06,1.2970694135317179e-06,1.146480001975381e-06,-8.018319244560529e-06,-1.4109159711454546e-05,-1.7659812576222878e-06,1.4638075786245126e-05,2.6150807907767836e-06,4.210562411283131e-06,4
-2.1028967404614172e-06,-5.910887698898873e-06,-3.52234399875866e-06,-3.042189097701921e-06,-2.430148383307516e-07,-1.577403952473237e-06,-1.0835354747294435e-05,-2.3954579603950428e-05,-1.0490062969129175e-06,1.482065442687315e-05,8.626551204112619e-07,1.360656571406672e-05,4
-2.5020394076676384e-06,-4.880055862738951e-06,-3.4736776214003953e-07,-3.630619483607214e-06,-7.833913421818385e-07,-5.099566198846227e-06,-1.3895043151706224e-05,-2.8415654767153983e-05,1.8520025530437315e-06,1.1885811061578678e-05,-8.856479256927378e-07,1.567390182396754e-05,4
-3.60512722091034e-07,-2.148657587357473e-06,4.4947904579321375e-07,-2.952054663837213e-06,5.421001890075652e-07,-3.5614742212349603e-06,-1.2108341494133298e-05,-2.2524378598471726e-05,3.3819288808462832e-06,7.4741063531297585e-06,-1.1174870591844457e-06,1.1087054980274723e-05,4
2.0926717044499623e-06,1.8000858322562594e-06,1.477981872148343e-06,-2.3718669730082226e-06,1.347120643093171e-06,-7.921006145672231e-07,-5.81368307413022e-06,-1.1076250414030915e-05,2.0779970990226586e-06,6.276043890608704e-06,-1.071924671213122e-06,5.725022803764686e-06,4
4.112528445331159e-07,4.026355059084207e-06,3.777361500482851e-06,-1.2686175268159897e-06,1.5772966011401268e-07,-1.125909689502366e-06,-1.4347864491130332e-06,-6.248968418678558e-06,-5.058347239867499e-07,4.707951025934058e-06,-4.4701718796700855e-07,3.811500639799363e-06,4
-3.72417281310565e-06,3.796440446449364e-06,4.05180485219952e-06,-2.951321393390601e-07,-1.7957672124612949e-06,-2.516205024647973e-06,6.088570419215808e-07,-9.78656372870813e-06,-2.81932467936177e-06,-5.226704116803876e-07,-3.0884080625918665e-07,4.828045679993263e-06,4
-4.499228971343246e-06,2.920268775019201e-06,9.641927586323184e-07,-3.6354762581776e-08,-3.499551885021955e-06,-1.6307423878369016e-06,3.7826258586293103e-06,-1.5199468198384723e-05,-3.036094808992044e-06,-6.044735422923022e-06,-1.1371819879734986e-06,7.051169902700821e-06,4
-1.752803683485098e-06,2.359197671584218e-06,-1.4481913712180395e-06,1.4312271563097087e-06,-2.6974446664644907e-06,1.1105908091431372e-06,7.171518812320765e-06,-1.8344547874054896e-05,-1.111074088176439e-06,-9.462817194410633e-06,-6.622667661176457e-07,9.73272723521734e-06,4
3.299555250544286e-07,1.648429710150502e-06,-2.76604943301317e-07,2.939958074213537e-06,1.880235137395918e-07,1.7695468821635241e-06,8.405095244583689e-06,-1.8513553454146154e-05,1.7232995484776275e-07,-8.265164381938028e-06,1.2519335222630235e-06,1.1324972726835395e-05,4
9.874026504828367e-07,1.032540207159656e-06,1.491687730738981e-06,1.9035939985673756e-06,1.3377060707326669e-06,3.3305333057651565e-07,7.168693584622254e-06,-1.4795832603132454e-05,-4.788176002478121e-07,-4.384070752659411e-06,1.9361990022471424e-06,9.742635862381936e-06,4
1.5622006209955682e-06,6.640827190444868e-07,2.448442878001463e-08,5.278379441170987e-07,1.6757244532927149e-06,-1.310996502548906e-07,5.413455322994408e-06,-7.202277560382935e-06,-1.6357866376999275e-06,-5.339258342855198e-06,3.0986922582785596e-07,5.813981989592775e-06,4
1.231201619125456e-06,3.1862104264657254e-07,-1.2997912167802801e-06,1.1974116320316206e-06,2.5813162872764924e-06,8.482229264513431e-07,4.435273244070515e-06,5.953195697676924e-07,-1.1413474461894636e-06,-9.625068715263335e-06,-1.1317850980561327e-06,1.643656347328244e-06,4
9.411274535615419e-07,5.894508687075128e-07,1.6742938258060357e-06,2.530283444710045e-06,1.3822398582866066e-06,3.285216867189011e-06,3.0520373498385842e-06,6.3214850087752065e-06,1.3921071296448414e-06,-9.816570584185459e-06,-5.467371730173189e-07,-2.5843152196844698e-06,4
1.7189944404984168e-06,1.4658507071361589e-06,4.743095951945257e-06,2.2314158746268058e-06,-1.4090871075537022e-06,5.534015922427302e-06,2.2976047291938574e-06,1.198338456543453e-05,3.0904488489654022e-06,-4.51273336723407e-06,1.153395385673222e-08,-4.99494896989224e-06,4
2.5956073535953812e-06,1.399554236899279e-06,3.916818056924334e-06,-1.4607789274063044e-07,-1.7726240045665753e-06,3.9861633208539185e-06,2.581837635806522e-06,1.9024859403749556e-05,2.099686581701681e-06,1.4526070238596635e-06,3.638593087286801e-08,-5.421503354843832e-06,4
4.528227083224396e-06,2.0270202022540595e-07,1.7713635621018458e-07,-1.2930576643351558e-06,6.471158688566953e-07,-6.387241484631083e-07,1.0257172446942996e-06,3.180032008620822e-05,9.831475130169703e-07,1.9346008180646755e-06,8.950986896892922e-07,-7.887194892451699e-06,4
6.163031541533239e-06,-8.303676324215959e-07,-3.369325874148681e-06,6.630782583388262e-07,2.626413947529886e-06,-3.669238580445973e-06,-7.584100094556641e-07,5.071423869110462e-05,1.9498021950047993e-06,-2.22482678387428e-06,1.0656902617192186e-06,-9.938976634185062e-06,4
5.966375032718461e-06,-1.9762334233758095e-06,-3.0573903593099616e-06,1.8929923461388597e-06,2.992088888886714e-06,-3.013923131788298e-06,-1.1519271264901524e-06,5.708892862314686e-05,2.8574285684052073e-06,-4.551556975607371e-06,-1.814550743938387e-08,-8.34312830076032e-06,4
4.032079650498397e-06,-3.5585019980946713e-06,-1.3903251264824794e-06,5.079072638717886e-07,2.3043049047643923e-06,-9.240848754483144e-07,-2.682234291981431e-06,3.403999132709073e-05,1.489854967227783e-06,-2.061750398100463e-06,-6.361459117123343e-08,-7.5596854067656555e-06,4
-2.4198466977478754e-06,-4.987153384695251e-06,-1.996227712930327e-06,-1.600657359427278e-06,4.704902042457438e-07,-4.2048301071652897e-07,-3.912745034067698e-06,-5.578936065694766e-06,-8.357627386036053e-07,2.7501655790396603e-06,9.081968874959288e-07,-6.440307653446465e-06,4
-9.712675072840186e-06,-6.126354424840759e-06,-2.0688416406409044e-06,-3.551883591670904e-06,-2.0365443154162136e-06,-1.9883116441027506e-06,-3.6542677247195453e-06,-2.4417215488469357e-05,-2.039312560120931e-06,5.549892575477936e-06,-8.686373430201724e-08,1.0876858595745046e-07,4
-1.0467919685321253e-05,-6.079187989411943e-06,-1.6637389022097433e-07,-3.740039714624942e-06,-4.152425277931342e-06,-2.5937212237890504e-06,-3.480988310686662e-06,-1.8936852813680405e-06,-2.6532594432641117e-06,5.59982796419502e-06,-2.888698678329502e-06,9.772197085867216e-06,4
-6.817438022994304e-06,-3.8194294665359315e-06,1.0987718824152933e-06,-1.7483271567750344e-06,-4.9619955260671385e-06,-9.752478622901615e-07,-2.12197151867882e-06,2.375809550734874e-05,-3.861167155075983e-06,5.844057643778156e-06,-3.0456121555210932e-06,1.6508871791717797e-05,4
-3.5252376187945703e-06,-3.136100769732129e-07,-4.969979769684779e-08,-4.827220140557427e-07,-3.47046535657722e-06,-4.0793502277614686e-07,-6.724258401022079e-08,-1.2181953197032746e-06,-3.6300417098383034e-06,6.961972778391182e-06,-2.684432946279487e-07,1.5045446840804564e-05,4
-1.7984839847163694e-06,3.4061258841198697e-06,-9.123990149742831e-07,-7.343853246819112e-07,-3.92894307035994e-07,-9.89105282504294e-07,6.906827733543023e-07,-6.561393141546e-05,-8.22488421584912e-07,6.061031175819308e-06,1.1139627607005901e-06,7.246084277900573e-06,4
-1.1497009117535427e-06,7.391160474226977e-06,1.1322442657801316e-06,-7.209279726007065e-07,1.131925244884636e-06,-4.310480655230601e-07,1.2271065575142782e-07,-0.00010663385713003572,1.2733761256743092e-06,2.544501862402075e-06,6.996980926136311e-07,-3.3627637831940144e-07,4
8.708966229028983e-07,9.280446989505694e-06,1.5560620288537583e-06,5.612873685057267e-07,1.2345006601447603e-06,3.9392113061007097e-07,-2.117756774831458e-06,-8.497374617215785e-05,7.282531168616914e-07,-1.6126337276259356e-07,1.106961862956993e-06,-5.071208059545358e-06,4
3.8049937934758257e-06,7.2553960454922e-06,-1.8770693075805284e-06,1.6351970612676335e-06,2.217393416194366e-06,9.329424109828212e-07,-3.493143064366696e-06,-1.7490788232419602e-05,-2.2391512306948232e-07,-8.403312321896417e-07,2.367587328474223e-06,-5.280618279372204e-06,4
3.6443759175929353e-06,4.453971942685877e-06,-3.9351418674168674e-06,2.1678514423836226e-07,1.7630758884462344e-06,1.732964363005295e-06,-8.144054190574473e-07,4.091402080942734e-05,2.1632116990632703e-07,-6.659263657501433e-07,2.008696681486269e-06,-3.1204805532857793e-06,4
6.963191544160724e-07,3.26090475445167e-06,-1.6969811289883974e-06,-1.4214888971225008e-06,5.5464686414219466e-08,2.59994065877959e-06,2.6749149005954496e-06,4.188377893069753e-05,7.492694209970867e-07,1.1192737042454686e-06,-7.268969349263428e-07,-2.22340969116426e-06,4
-1.2382197033915427e-06,3.3524327737813808e-06,2.312689426543326e-06,-6.465429040458973e-07,1.0941957070287394e-06,2.6167412049481567e-06,1.94900049501062e-06,4.5531727702527673e-07,1.3417964537016416e-06,3.1743665299855987e-06,-2.315451021436127e-06,-1.3010016444629852e-06,4
-2.9604932416821586e-07,3.4309625661618936e-06,4.0152523455896465e-06,1.1206186523985745e-06,2.975825215813471e-06,1.1030963998001715e-06,-1.1290824731274244e-06,-1.6993011149760685e-05,3.201018053904846e-06,1.6147600813170526e-06,-9.418779841644698e-07,-2.118654711133678e-06,4
3.5430214962604527e-06,1.5833878433320886e-06,3.185969315897011e-06,2.7272450065950905e-06,2.7287391858897026e-06,-4.555745704003719e-07,-9.099398227027238e-07,1.5279884049452577e-05,3.6334852465379198e-06,-1.1228264698697367e-06,5.854707090277103e-07,-4.65071901712269e-06,4
7.597905939217402e-06,-1.4624839924714076e-06,2.117176083865735e-06,2.6895205156870604e-06,1.2835041269995273e-06,-5.877731200914044e-07,2.1248290474360813e-06,5.605249279940834e-05,1.2497441306797275e-06,-1.699217312160701e-06,1.3774043541418018e-06,-4.373707245607716e-06,4
8.308805383811992e-06,-5.2326782769170405e-06,9.577715248335725e-07,1.412082341181853e-06,-2.5956584942188495e-07,6.835105793735864e-08,5.170897720992974e-06,6.607506894065477e-05,-1.2620791741139408e-06,-3.8082328588973177e-06,1.779954949276325e-06,-3.204551682113117e-06,4
5.486812527035996e-06,-9.628925406257265e-06,7.120875034611872e-07,1.431126161723456e-06,-1.2040713479099042e-06,5.396805559330538e-07,7.2817483624367895e-06,4.7570641125627766e-05,-2.7854666877559826e-06,-5.868412136886502e-06,7.35592427862467e-07,-3.1193909988388124e-06,4
1.2213473192822617e-06,-1.0764762369330546e-05,1.253017858208469e-06,1.5162581476209036e-06,-1.552729433344676e-06,-1.1447366246499005e-07,4.7575161514822265e-06,2.0420922876568708e-05,-3.2290749263073925e-06,-3.3773252882278757e-06,-5.307663420461141e-07,-2.414297549618995e-06,4
-2.1217110537988687e-06,-8.306029338859231e-06,1.0498887460022484e-07,1.101862994485568e-06,-1.65666958460418e-06,-1.3259401313318742e-06,-4.340205262695669e-07,-4.040736365751205e-06,-2.450101408325678e-06,-9.607282972796018e-07,-8.222510661767907e-07,-8.286299488917416e-07,4
-4.007852222595723e-06,-5.848234129307106e-06,-1.371820179719677e-06,7.670851912065725e-07,-1.6852322525561545e-06,-1.0548137068178186e-06,-2.1665493971760823e-06,-2.3897731228043487e-05,-5.689569994915236e-07,-9.857292736649005e-07,-9.42427473644441e-07,2.158098005246952e-06,4
-5.24988803527572e-06,-3.4798203557787942e-06,-6.693869530557677e-07,1.0912014053327987e-08,-1.5492848221919173e-06,-5.847078013101767e-07,-2.9704458871895982e-06,-3.6800471139137374e-05,1.4805177989042136e-06,-3.798385035047052e-07,-6.544404936875311e-07,3.6034131631952077e-06,4
-5.260985957387136e-06,-1.2898515010740612e-06,1.333325852273583e-06,1.8757423253603e-07,-1.2975809045347828e-06,-6.370886415908165e-07,-5.647904804926258e-06,-3.907551224999709e-05,1.660936852565132e-06,1.3872757238256927e-07,-4.87047893303535e-07,7.10857501399748e-07,4
-4.127034425382199e-06,6.612835092710028e-07,2.5781440211993715e-06,2.1632361282341962e-07,-1.5611503903956995e-06,1.2001054025311353e-06,-7.672340688680182e-06,-3.1939896248002686e-05,7.287415677505839e-07,-1.3184462675692425e-06,-1.2281427019315873e-06,-2.0274625561659877e-06,4
-2.2907962800195057e-06,3.8442678009489825e-06,2.052094380753195e-06,-8.645651232288707e-07,-1.4913711219751585e-06,2.2748518354328363e-06,-6.3747642590571675e-06,-2.0058169659612656e-05,-1.0915587744383376e-07,-3.3842285374069805e-06,-1.458744995581982e-06,-1.9303108857020543e-06,4
-4.1340159801512505e-07,7.025935972865337e-06,-3.057593411067112e-08,-9.46862154173508e-07,-5.406931102255189e-07,1.1139797338682077e-07,-2.794757140012189e-06,-8.613167730210643e-06,-1.2657414824927273e-06,-3.088765567020301e-06,-1.1423606900224936e-06,5.025210383342093e-07,4
-6.681731457898194e-07,8.79676457548906e-06,-2.949368752218468e-06,-8.576800437000158e-07,4.1347656475980724e-07,-1.709019143554772e-06,-1.5136144523532071e-06,-1.8044303914077878e-06,-1.1565196733884535e-06,-1.020955444197976e-06,-8.220212286142532e-07,5.616881192793301e-06,4
-1.704980039846845e-06,8.709627444538723e-06,-5.968533650488626e-06,-1.8662509111785301e-06,1.3309266214170006e-06,-2.05812414470711e-06,-7.476973295579927e-07,1.8874294131675124e-06,4.537692183665065e-07,-4.3238518418410533e-07,4.0749181070678907e-07,9.57042518089047e-06,4
-1.0147863628262464e-06,6.331336158576487e-06,-8.914527153273795e-06,-3.574547615796427e-06,1.525427559868923e-06,-1.7963884679835944e-06,1.7309333147493867e-06,3.7454206192919165e-06,1.8084809138821616e-06,-1.2768603444772753e-06,1.904067929861671e-06,9.318498319408381e-06,4
2.1238887979748265e-07,3.799697009795298e-06,-9.483428886970688e-06,-5.120129947850709e-06,8.694487140958315e-07,-1.005280392583288e-06,2.6404413966619063e-06,1.0997821409224986e-06,2.0491366450309623e-06,-1.3457667263766244e-06,2.798298594911994e-06,6.596754700480997e-06,4
1.3673689408660956e-06,2.044719515961709e-06,-7.320728255519929e-06,-4.853388693730449e-06,5.891481840199662e-07,-1.194855474939869e-07,3.75149573711483e-06,-2.9411547243374384e-06,4.692710177610019e-07,5.144484381815163e-07,1.7058551348024357e-06,2.6441624664387546e-06,4
1.707120483364435e-06,-8.997945867538397e-07,-1.0325304126558484e-05,-3.45166071317571e-06,5.565032698454248e-07,1.612235674446267e-06,5.598096019936101e-06,-3.9296466059349524e-06,-1.1031455374845028e-06,4.017703087742128e-06,-1.5559155757532127e-06,-8.323286878456951e-07,4
2.285335907827064e-09,-5.4596082077885995e-06,-1.6485973159605968e-05,-2.7705908252067144e-06,6.542639592436241e-07,2.536919543505359e-06,5.332878776884922e-06,-2.3758216842839463e-06,-8.195135380543834e-07,6.549904908014854e-06,-1.857296581057312e-06,-2.743846794383102e-06,4
-1.4350736095851476e-06,-9.7840052547608e-06,-9.302281909069905e-06,-2.4276154120210025e-06,9.344294754404904e-07,6.710567386011212e-07,3.7739283910309973e-06,2.1598344719221134e-06,-2.16136248858014e-07,6.28923357094702e-06,1.2804815563692889e-06,-4.3636416059179415e-06,4
-1.0659512511759511e-06,-9.722732599805197e-06,1.204685300375699e-05,-8.87193543180435e-07,7.147377156263707e-07,-1.85080140953718e-06,1.7675546034622259e-06,1.1320668845575048e-05,5.086733153525211e-07,5.6058984694907745e-06,2.706617427691911e-06,-5.841073451169139e-06,4
-9.702320375930788e-07,-4.382735444797415e-06,3.069820815279064e-05,1.957380464284273e-06,-1.1798004336337822e-07,-3.4160604407461914e-06,1.359922091647545e-06,2.630523680346332e-05,1.7536595871651732e-06,5.313694740115525e-06,2.4662629449117126e-06,-6.572276710249906e-06,4
-2.4641453331380938e-06,-5.429869176052355e-07,3.7562340615403494e-05,5.059059326005127e-06,-8.051566483743814e-07,-3.1919707959105707e-06,2.8378167001847868e-06,4.289457055921214e-05,1.7476786045041234e-06,3.678167465166072e-06,5.237912985735342e-07,-6.966428704273906e-06,4
-3.468101818133115e-06,-9.015291011695355e-07,3.5370173977290306e-05,8.633621519208881e-06,-3.81409297349206e-07,-7.016283958135635e-07,3.777358021164743e-06,5.277393151365404e-05,2.422059134478952e-07,1.7412616269115924e-06,-3.527059485675752e-06,-7.468981914653112e-06,4
-2.975902909496517e-07,-1.0499456413726252e-06,2.6700929565783294e-05,1.1169258008028978e-05,5.671992823914043e-07,2.013253122398649e-06,4.07788131182898e-06,5.34248445919909e-05,-7.293327256588364e-07,1.6859117901805127e-07,-4.0905408978690165e-06,-6.2778863294878574e-06,4
5.565038391567921e-06,3.345928654818906e-07,1.176505442822204e-05,9.790204030220266e-06,1.470866992587389e-06,3.361307111493025e-06,1.8332131766929543e-06,4.353735421441443e-05,-5.132350617444658e-07,-1.6956820055018035e-06,-5.725603617199176e-07,-1.8477277519743895e-06,4
9.730371973094462e-06,2.450102010572212e-06,-5.004990043504489e-06,5.834153151418275e-06,1.99573833862101e-06,3.476014574901817e-06,-2.526275993779268e-06,2.302267295479212e-05,-6.465601282126551e-07,-3.5158486273928477e-06,1.8079411189714435e-07,3.2407644757016698e-06,4
1.1768277787621192e-05,4.09155423443201e-06,-2.037023207072237e-05,1.6504700461800024e-06,3.0030045363130505e-09,3.1074327202439864e-06,-4.099276384284826e-06,-3.584965038878868e-07,-2.2081960547908753e-06,-5.75975296615778e-06,-1.3066817708015598e-06,6.543201532352509e-06,4
1.055150008200381e-05,4.307902569585952e-06,-3.53796839594568e-05,-1.429809091682338e-06,-2.4904853923448403e-06,2.8588536402812846e-06,-2.6934784977809033e-06,-2.0513458742654007e-05,-3.4584344719939415e-06,-7.775424780187517e-06,-2.2465050148953142e-07,7.444717344213361e-06,4
6.132499684316261e-06,4.929090708406083e-06,-4.608200328564529e-05,-2.6444292817675858e-06,-1.2542757367439095e-06,2.2646224658108443e-06,-1.7580251848698065e-06,-3.96952233475765e-05,-1.6475963142787303e-06,-7.481519579826509e-06,4.417470324230044e-07,5.547401419730158e-06,4
2.0931417255484716e-06,5.593537833028324e-06,-4.474381150048478e-05,-4.417532526451782e-06,6.658651146994341e-07,1.212992067010495e-06,-2.353856813652323e-06,-5.9570573808501217e-05,1.0041452096368405e-06,-4.444271975252357e-06,-8.105993442938091e-07,2.6415507363115297e-06,4
-1.3035803272510697e-07,6.001642479389531e-06,-2.61117134306528e-05,-7.826069802029458e-06,-6.567960186723854e-07,-4.012593362318807e-08,-3.26299644443645e-06,-6.884028077952367e-05,1.1574770176320514e-06,-5.545782649512386e-07,9.365706743855681e-07,5.694837662111357e-07,4
-1.3954775803520974e-06,8.169907708648284e-06,4.2790660492391007e-07,-9.654566374865618e-06,-2.4377132632996954e-06,-1.167759013994652e-06,-5.972715574959086e-06,-6.249974298834125e-05,1.4000172389835423e-06,7.042719077374905e-07,3.861527588785783e-06,-1.043608682611745e-06,4
-5.564596354841558e-06,8.827227190004628e-06,1.3334365177781399e-05,-7.335314121023312e-06,-1.3440590004466374e-06,-1.286800603056643e-06,-1.1328251587347493e-05,-7.219066020042914e-05,1.999403081447184e-06,4.271123252910011e-08,2.9426357234481512e-06,-2.141232676262894e-06,4
-1.255791920719256e-05,5.040124273216713e-06,1.2376294731239844e-05,-2.6956889667489417e-06,9.337796877244831e-07,-2.0952901136506413e-06,-1.3683337143906855e-05,-0.000110719936682994,7.639507429785495e-08,1.5153410856323406e-06,4.320335513749387e-07,-2.678046000555949e-06,4
-1.5484078626099632e-05,-2.0575350144315286e-07,1.2499848046896802e-05,2.3101485973862078e-07,1.2559835868865296e-06,-4.778988073888862e-06,-1.03933073477199e-05,-0.00011884078855657607,-2.043604621381387e-06,4.5607901367806275e-06,-8.264603636190174e-07,-2.9682454590917147e-06,4
-1.2834623528139602e-05,-6.3113254790108105e-06,1.4238381511634626e-05,-4.938616364175377e-08,-1.4752933377230618e-08,-6.138031894684044e-06,-5.691849754460672e-06,-5.6603622915957145e-05,-1.3719571001451958e-06,7.272315829451766e-06,-7.208902318406257e-07,-3.171256255506324e-07,4
-6.7435200131095785e-06,-1.2596956206160753e-05,1.594170167276456e-05,-2.3868434431303943e-06,-5.014038375176803e-07,-4.890068422027715e-06,-2.1842697844082064e-06,3.0084442836527022e-05,5.585171092380566e-07,7.143573578668142e-06,4.050886121239539e-07,5.018873558475207e-06,4
4.499941410796309e-07,-1.3755487405254493e-05,1.9278566359002276e-05,-3.4879510919595516e-06,5.298518817597186e-07,-1.8505809489630011e-06,2.8608430326638943e-06,8.738454653160787e-05,-3.3537100731127684e-07,1.2707969346381558e-06,5.111213551961367e-07,7.129359070221357e-06,4
2.165191238693347e-06,-1.0395989180659302e-05,2.1580585731977708e-05,-2.449120798839768e-07,1.3534262456456895e-06,2.157905983901441e-06,1.0693415693874665e-05,0.00010529872406850557,-3.5058884032437898e-06,-5.435406086511451e-06,-1.0195564014940918e-06,5.779518969288962e-06,4
-4.569071074414452e-06,-9.36519711713864e-06,2.1608996508421408e-05,5.365776409167809e-06,1.0941030802784521e-06,3.83858191472024e-06,1.4153036022186076e-05,9.543805994836175e-05,-3.935285393056896e-06,-7.401431762456866e-06,-1.9779947493288663e-06,3.2690390690391237e-06,4
-1.2695355546939348e-05,-1.1588070110378754e-05,1.5374959702076766e-05,8.307957366599286e-06,9.228188592396349e-07,2.285427215024329e-06,1.0517101585075722e-05,7.645349670384058e-05,-2.480614458472808e-06,-5.76622299657623e-06,-9.771216876162139e-07,-1.809657817015287e-06,4
-1.2599263295190376e-05,-1.3885833771768305e-05,1.013697299354862e-06,5.887253727110328e-06,-5.002474936731745e-07,9.072477077998145e-07,7.489813838183255e-06,6.730185722611596e-05,-1.6350634253819653e-06,-2.493452590706274e-06,2.112861540790792e-07,-7.226298807308972e-06,4
-2.051019976887919e-06,-1.3761334517459318e-05,-9.367457486078258e-06,1.3003356017028994e-06,-3.144097269424715e-06,1.0539952710471021e-06,7.201718580261986e-06,8.18242215773081e-05,2.386801590826134e-07,8.766126471117891e-07,-8.37910110088975e-07,-8.943637312204848e-06,4
1.4541501199121212e-05,-9.794146464644711e-06,-8.381198589047994e-06,1.0047674427337922e-06,-2.3914888674279476e-06,1.4258994797581177e-06,7.406880289029515e-06,0.00010855029836549066,4.55078608541946e-06,4.19060999213895e-06,-1.5183204038274692e-06,-6.982591443082131e-06,4
2.952634610746007e-05,-3.115708819406154e-06,-5.677085713292355e-06,4.876229794147905e-06,8.730151076900416e-07,1.4592414939473543e-06,1.011632156956171e-05,0.00011110129296136713,1.087680204613973e-05,6.489819000827414e-06,1.1403139257603351e-07,-5.0393887130456835e-06,4
3.1940451423496846e-05,1.0604574716434662e-05,-7.5738209966621305e-06,6.828288661679648e-06,1.5382110410790045e-06,8.623820460004483e-07,1.3347710853425164e-05,7.76631979712765e-05,1.3931099710598498e-05,4.686581225919787e-06,3.819909139059876e-07,-3.5513383753157347e-06,4
1.951023111284759e-05,3.373165023357077e-05,-9.86935000446662e-06,5.90650734637423e-06,-3.8169458856292967e-07,2.0980917128019964e-07,1.1563361519098431e-05,2.1311354671173395e-05,9.71118745626703e-06,1.2134924153339658e-06,-3.6083061623207844e-07,1.7602341755543832e-06,4
5.011568402002543e-06,5.1111566892323454e-05,-9.995030644305178e-06,4.825268457591833e-06,-1.8974064734022652e-06,1.241668589538172e-07,4.984319973826163e-06,-4.0717231143981576e-05,4.21508073264238e-06,2.3945153318660585e-07,1.762681111829625e-07,8.445057533421137e-06,4
-1.894321934249781e-06,4.810923408520085e-05,-9.355004448259848e-06,3.881093664245969e-06,-5.217858972611362e-07,-1.952639720433041e-07,-3.928850780816059e-06,-8.299582200873578e-05,4.840217251823246e-06,6.793876995893597e-07,3.836758719051524e-07,1.1285569997035343e-05,4
-3.580976190774872e-06,2.5649000870354947e-05,-1.076110621247023e-05,2.5512810793802845e-06,2.221731691988567e-06,1.6037012410747712e-07,-1.1875565113228133e-05,-0.0001108835911889366,8.975086135210526e-06,2.463555595341246e-07,1.1982986248974608e-06,9.235380244506716e-06,4
-3.913583628379586e-06,-5.525080721229185e-06,-1.6828862254477856e-05,-3.559811052498448e-06,2.3489369193680153e-06,8.244843331202745e-07,-1.3740121275230568e-05,-0.00014480046985330196,5.18225448060542e-06,-2.906247950470775e-06,2.5644587655168337e-06,2.2604186045209216e-06,4
-4.454318682819473e-06,-2.8804952889173685e-05,-2.4532142876542318e-05,-1.7772990017210395e-05,1.3593004999184616e-06,5.917740740725838e-07,-1.1802796809960286e-05,-0.0001542630354735695,-1.1078836509529725e-05,-7.0420680972952466e-06,1.256825124680175e-06,-5.175229064623556e-06,4
-6.737538370650667e-06,-3.42505671475552e-05,-2.4517434052998384e-05,-3.0649128073261886e-05,1.1973124300389001e-06,1.6431370460942935e-06,-1.2538233844111398e-05,-0.00012280918537388967,-2.981456015999556e-05,-6.526133401067769e-06,-1.1505554004572113e-06,-9.128290990489015e-06,4
-1.1144468475437161e-05,-2.7690156467983167e-05,-1.4965032168670561e-05,-3.065024912572336e-05,-2.0397655634151543e-07,1.5728280247116726e-06,-1.625967384047034e-05,-0.00010321723827776088,-3.9571130013337205e-05,-1.7292106018706318e-06,-2.072879154314586e-06,-9.194397125099714e-06,4
-1.6197322640426573e-05,-2.0810618043655356e-05,-7.0065982842126215e-06,-1.7814570110780514e-05,-2.299800487460903e-06,-2.529867544547073e-06,-1.8451143414353787e-05,-9.664714031661523e-05,-3.491531776906345e-05,2.440679033948067e-06,-1.4891738226924621e-06,-4.985885660065938e-06,4
-1.968768708656554e-05,-1.5818122751436748e-05,-2.3727473309049506e-06,2.8658532625765245e-08,-3.2969634135786494e-06,-5.48014806852001e-06,-1.4000943851258186e-05,-3.189323369238122e-05,-1.673335759118636e-05,5.342571600635857e-06,6.692303577096334e-07,-5.077299157168635e-07,4
-1.8431974278454453e-05,-6.152127537810275e-06,1.1188506110311755e-05,1.4072842240290518e-05,-2.546404812151516e-06,-5.014018836224656e-06,-4.328328152553375e-06,7.451828467331166e-05,6.158897367906142e-06,7.438334655513264e-06,1.2109268389114217e-06,4.7207303797472107e-07,4
-9.993543087853342e-06,5.36566939495192e-06,3.455156367588022e-05,2.0375799940867673e-05,2.616663316579407e-07,-2.8904082482498694e-06,4.474832881997975e-06,0.00013015951070294947,2.4444970464006324e-05,6.157151931667253e-06,-1.020201302715032e-06,-1.9331951620175154e-06,4
2.1078117638438675e-06,6.177727717213397e-06,5.239317816865307e-05,2.1188383739619255e-05,2.4608278801481094e-06,7.839805286635482e-07,1.120873450186845e-05,0.00011706002023861462,3.3756448387261355e-05,5.318780463251347e-07,-9.025410212214905e-07,-5.397180140557996e-06,4
1.1191092217804106e-05,-3.1773261491530207e-06,4.785897823229226e-05,1.979682049400205e-05,2.563367113014504e-06,3.389556342551498e-06,1.521642158635565e-05,8.1698506412729e-05,3.102778423625323e-05,-4.445330692065499e-06,1.2787703164330814e-06,-4.105849762128834e-06,4
1.3010048312218342e-05,-5.2962395119959524e-06,2.122514843297355e-05,1.6952191974016256e-05,2.6051633090271146e-06,3.678122422391296e-06,1.2654180915149641e-05,3.851155149313383e-05,1.8667036209649997e-05,-3.642945855528979e-06,1.3775455697271318e-06,2.545031772735931e-06,4
8.376868532076463e-06,6.163503243998505e-06,-2.779029890133799e-06,1.2761478496272597e-05,2.6151253280715965e-06,2.9895475609938924e-06,4.40886932467048e-06,-8.307180434524046e-06,6.563569614994793e-06,-6.171383977403352e-08,9.024749642245731e-07,9.345785416549252e-06,4
5.3062968682295e-06,1.6332146893816456e-05,-5.754906051562072e-06,8.848144934961196e-06,1.5819060608655218e-06,8.53819514220406e-07,-2.5657644204128288e-06,2.825285946711674e-06,-3.215723585474729e-07,-6.971877379016632e-07,9.218829234531422e-07,1.469561432547342e-05,4
7.761212897255942e-06,1.5558047176351146e-05,2.97813942899278e-06,4.615900205636903e-06,5.000897714520686e-08,-1.3115948933575005e-06,-4.612619681362331e-06,8.952646819236417e-05,-4.195508962569987e-06,-5.59296538590029e-06,-3.444969512803391e-08,1.5797330649327814e-05,4
9.668613714574765e-06,9.61200662656975e-06,7.935207234318238e-06,-1.8084054335081277e-06,-1.0080790584252976e-06,-1.221471546137216e-06,-4.148217791791462e-06,0.0001256865186105849,-6.455449675151484e-06,-8.741366916515146e-06,-1.4675567176646392e-06,8.434098806548168e-06,4
6.913934404187576e-06,6.103452874544593e-06,6.299974308287126e-06,-8.243777136411498e-06,-1.347542039491513e-06,7.223385064619792e-07,-3.833494502522206e-06,2.2742175786087923e-05,-7.602916079230715e-06,-7.030969968931603e-06,-1.6122090647516628e-06,-6.240896389524974e-07,4
1.7040858374671341e-06,6.345370213749071e-06,2.3819769783981287e-06,-1.2944577155024233e-05,-1.6161446873838807e-06,2.259768426658927e-06,-2.1446517390022306e-06,-0.00010920190180658217,-8.036022159513801e-06,-4.6440907286398974e-07,-3.905290760874791e-07,-8.420370928424425e-07,4
3.697507928495665e-07,6.61723769495255e-06,-3.7356706046409047e-06,-1.6716487530710295e-05,-1.3797443579709805e-06,1.0469762277011084e-06,5.1152656773484065e-06,-0.0001298645180840826,-7.65494689732056e-06,7.205782655021927e-06,-5.845062791421621e-07,4.3523892367431515e-06,4
4.627528587412485e-06,7.3261036661383616e-06,-1.5361942559536532e-05,-1.789227608642862e-05,-7.78715552940577e-07,-1.2124714807729499e-06,1.4989814506792792e-05,-5.9514519351962016e-05,-5.787847392809333e-06,1.043361242047217e-05,-1.3961304027623182e-06,4.878704094106396e-06,4
4.293893425130452e-06,6.5298282576331885e-06,-3.478796743989966e-05,-1.4657820199015338e-05,-1.5131701513594962e-06,-1.8290785392222472e-06,1.9678919148909484e-05,5.549714905515865e-06,-2.953269297433536e-06,1.0116831288179935e-05,4.173800687664796e-07,-3.000610367110656e-06,4
-6.147943791008092e-06,-5.693222411595943e-06,-5.4702389076873746e-05,-8.48427667248807e-06,-3.3906009771581176e-06,-1.963511921777315e-06,1.861216600490187e-05,3.456499516411001e-05,-1.7358018766814914e-06,7.473675995246465e-06,2.2349186171916053e-06,-1.5572788335795324e-05,4
-1.7053003931472722e-05,-2.380005433501079e-05,-5.2715386347421285e-05,-2.0348725089587926e-06,-3.7902298919154104e-06,-2.0107948539833978e-06,1.3263363330626893e-05,4.5404638621793286e-05,-1.3205031704417202e-06,1.8856374913649987e-06,1.544713075177133e-06,-2.2343471851590053e-05,4
-1.7894514496222734e-05,-2.8975535577741806e-05,-2.4722973161021353e-05,2.1520145446640837e-06,-9.359683082719517e-07,-7.397858498504393e-07,4.602734357064112e-06,5.062203466931282e-05,1.726531911180014e-07,-3.525664206265684e-06,3.44276646087628e-07,-1.84944999944566e-05,4
-9.095923419827777e-06,-1.8479883128641285e-05,1.3092960775039367e-06,3.6383715044490424e-06,1.7750310352202849e-06,1.20366253348201e-06,-1.6331958282383532e-06,4.951979549642527e-05,1.94101185938743e-06,-6.261516065619131e-06,-3.7652600478813145e-08,-1.0965694446634916e-05,4
8.772906454784977e-07,-4.162483944484301e-06,1.0566112200613587e-05,4.939612950620902e-06,1.052764005459147e-06,2.1386570363744537e-06,-4.486496870208464e-06,3.169469767423475e-05,4.131880556332249e-06,-5.581119406609033e-06,-1.4895403513203406e-07,-4.172855018778655e-06,4
7.60668707439766e-06,5.151541041635961e-06,1.4376917558656538e-05,6.812447928851466e-06,-1.4309959987154362e-07,1.4246319860445432e-06,-9.073223994817353e-06,-6.274341675137276e-06,5.50894124187036e-06,-5.2848284108355854e-06,-5.526037933798362e-07,3.165499998199923e-06,4
1.2683141820928465e-05,9.03256388978061e-06,2.0544017554616284e-05,6.844688954125402e-06,5.014374625661415e-07,6.449814103288512e-07,-1.4865512993881253e-05,-5.245416820095496e-05,3.8435369052451915e-06,-7.668040967439573e-06,-4.059707961965617e-07,1.0391210606362105e-05,4
1.3736858370289447e-05,9.580188204832066e-06,2.7169782077887698e-05,3.885285437805902e-06,1.650553743928092e-06,3.226058724310569e-07,-2.1379248899050577e-05,-8.508208882311826e-05,-3.677219194860507e-07,-4.3779961949429745e-06,4.2685568407975764e-07,1.4144780668413922e-05,4
7.020633283903871e-06,7.4854868081103525e-06,3.1389627661396565e-05,4.4574775762173843e-07,1.6390831257213263e-06,-1.355650096334087e-06,-2.7600902095962728e-05,-8.187211101369915e-05,-4.185656183468837e-06,5.953976911945251e-06,9.119929380879101e-08,1.2531984249152066e-05,4
-4.147411644779173e-06,5.0417546032189406e-06,2.7965063222734706e-05,1.1015754120183175e-07,1.2535859835934233e-06,-3.1123723943378523e-06,-2.2875267151800092e-05,-4.74015747750041e-05,-4.4357153814988375e-06,1.3475351793867846e-05,-1.3718500340276441e-06,7.97094211622486e-06,4
-1.1076090244474515e-05,2.805196926325484e-06,1.4874354653332216e-05,2.726196167010015e-06,2.576936128708784e-06,-1.8662223913029494e-06,-5.600006186823616e-06,-7.570149806812075e-06,-3.0447151662874584e-06,1.3091672852044447e-05,-1.5553092856797159e-06,3.396576477276724e-06,4
-7.992861011225198e-06,1.282435373423977e-06,1.7696383749751374e-06,5.358455178910493e-06,3.7251270210344084e-06,1.2940470100480497e-06,1.0437413838158942e-05,2.2184458843461344e-05,-2.5451426997168393e-06,4.061959613851849e-06,-4.791331761501027e-07,-7.821389586599062e-07,4
-1.330620661726703e-06,2.375331218125055e-06,-4.440873855491649e-06,5.939896394706459e-06,3.2686048677926385e-06,2.372877443086896e-06,1.5717655882860697e-05,2.8739298434321354e-05,-1.1698765309857579e-06,-8.949880585987727e-06,-5.569619808931558e-07,-4.146281357557459e-06,4
-1.5793500953445084e-06,2.2928060949403995e-06,-7.816674721074826e-06,3.8018836687485887e-06,2.567830743159122e-06,1.6646901504606275e-06,1.1468065262824434e-05,1.3613442249390519e-05,-4.989160321561536e-07,-1.4559611315990185e-05,-8.31118872519417e-07,-4.554357322607524e-06,4
-5.456288540921213e-06,-4.5856963260423254e-07,-1.0385502189404232e-05,7.804902966601984e-07,5.759009933910202e-07,2.8161891973899586e-06,6.026046976714912e-06,7.588355257245311e-06,-3.4082295754463763e-06,-1.0583392566140099e-05,1.135032462154409e-06,-1.801425404157422e-06,4
-4.29223869678794e-06,-2.787838609479166e-06,-1.1562989088089145e-05,-8.201601760374195e-07,-2.658600301222555e-06,3.467443383184391e-06,3.2927845229278996e-06,1.9637529729448056e-05,-6.388931602408073e-06,-7.039622277256498e-06,2.456338738217034e-06,3.5715782762897804e-07,4
4.867363706985429e-07,-4.485393500452377e-06,-1.1165443212317938e-05,-1.008318193134449e-06,-3.953396427473764e-06,9.702698488685685e-07,8.901872476714028e-07,2.580899447038231e-05,-4.751184128234802e-06,-6.873185224623241e-06,6.129275204643296e-07,1.3848568119195248e-06,4
5.598242960825674e-06,-3.5755024398013084e-06,-6.670765487580985e-06,-9.231889553620375e-07,-2.8551920717093163e-06,-8.841970282771073e-07,-9.74145022594417e-07,1.6841238828575938e-05,6.067665990442582e-07,-4.9380439778636904e-06,-8.006530846164081e-07,3.3622309680138743e-06,4
1.0652207512084714e-05,1.0836078353144354e-07,-5.787799481848747e-07,-2.064455519153644e-06,-2.708903904404572e-06,-1.820894048192983e-06,-3.3340054189333483e-06,5.352211707947653e-06,5.796486543248292e-06,-6.492931499185271e-07,-4.943220759882124e-07,2.6065855048444856e-06,4
1.1179244963488229e-05,1.8545966287185633e-06,-3.449167287725728e-07,-3.710948852429863e-06,-3.9583852649422886e-06,-4.19575576872102e-06,-5.908219904725768e-06,1.2918322878703077e-06,1.0059316289851496e-05,5.218997580269826e-06,-6.573164104647461e-07,-3.1656028468217704e-06,4
5.10833917404856e-06,8.03411012919393e-07,-2.9277491561030788e-06,-3.3344942360433302e-06,-2.9825407877189743e-06,-5.749034044462439e-06,-5.0504454096647445e-06,3.516848532722664e-07,1.4627949803715875e-05,1.1595175774764556e-05,-6.933980683682014e-07,-8.777269500608634e-06,4
-1.539049717810319e-06,1.48436970238044e-07,2.620226742080576e-06,-2.004158482342719e-06,5.0487745184181514e-08,-4.821222629316413e-06,-5.454150427637531e-07,-1.1220409361230932e-05,1.5917070770266736e-05,1.4935508975611505e-05,-3.1324542889270556e-07,-1.0185229270809469e-05,4
-5.038882051798938e-06,5.128121146158388e-07,1.4389593763728391e-05,-2.138209799912094e-06,1.0133278412937504e-06,-3.260087378893038e-06,5.207362822797003e-06,-3.845410316502483e-05,1.1363801061513978e-05,1.5026802807250566e-05,3.7860365392967047e-07,-5.853989779380648e-06,4
-7.145989479003407e-06,-2.0871741912539474e-07,2.1279115196002782e-05,-3.0837492352065746e-06,-6.603564490028111e-07,-2.155858634505297e-06,8.91725458967405e-06,-5.821407559607502e-05,7.040397775397051e-06,1.3874833482781541e-05,2.049536851534715e-06,2.93516396076401e-06,4
-6.756402259626954e-06,-5.832227418079095e-07,2.2133069747677485e-05,-3.5036507762150237e-06,-9.031346920078532e-07,1.9367770712404627e-07,9.66898180624667e-06,-4.0073653712928394e-05,6.482237074562474e-06,1.026646320960105e-05,2.5222647118809227e-06,9.01433255928576e-06,4
-2.163740017709902e-06,1.284155423224721e-06,1.932820379934376e-05,-2.705719983359218e-06,2.3726388410960516e-06,4.04874929830587e-06,9.905225159402374e-06,7.566131826342504e-06,8.562037606509312e-06,3.03353090044884e-06,1.5665365730641743e-06,9.443620542827312e-06,4
2.8528796454669002e-06,2.1051233381295987e-06,6.967464619750124e-06,-1.3449146348708144e-06,5.256119548067428e-06,6.728297256418119e-06,1.1071668756429784e-05,4.6724213914625144e-05,1.0028139645369747e-05,-4.410268518427237e-06,1.1990605153118141e-06,8.543077368483015e-06,4
4.7091420377690215e-06,3.912851376878481e-07,-1.7389909786895745e-05,-1.8803934046156278e-06,3.931295483047962e-06,6.709725497999323e-06,1.0443763789059422e-05,5.767568587382931e-05,-1.310325698097049e-06,-1.0553577149290042e-05,-2.3729855722472567e-07,8.38848748423519e-06,4
2.25239896555837e-06,-1.2982559533647245e-06,-4.2391869357411154e-05,-3.7193410937099767e-06,2.3541768834809365e-07,4.16023000374149e-06,3.671622061396359e-06,5.562521382711054e-05,-2.7445432372001008e-05,-1.6880796903387847e-05,-2.0016044326789304e-06,7.163278056958658e-06,4
-3.7024971339833123e-06,-1.264540083133161e-06,-5.467531716334263e-05,-3.209225059076042e-06,-2.479590909047717e-06,1.307817612500215e-06,-4.701265216406389e-06,6.955430762026919e-05,-4.82307653586196e-05,-1.8514062815273307e-05,-9.488748168950693e-07,2.001261850599262e-06,4
-6.517464427624331e-06,5.507953659286542e-07,-5.220198949907473e-05,-7.962914854325861e-07,-2.7259481707385023e-06,8.430689829014316e-08,-7.671382497590504e-06,9.860238636876247e-05,-4.7549094869802554e-05,-1.1058050306391377e-05,5.674286201627915e-07,-5.7583702540493605e-06,4
-2.2870106540225897e-06,2.427969894246713e-06,-3.740831424229328e-05,2.1734426240984395e-07,-4.722270190351944e-07,-4.988731313077906e-07,-9.200948785677455e-06,8.860600915023794e-05,-2.8468079288674014e-05,-7.462517347574302e-07,3.116065136407563e-07,-1.1075921433242649e-05,4
4.0738297692179735e-06,1.9572592511466345e-06,-1.0344041004209315e-05,7.695424699125935e-07,1.7330174849474342e-06,-9.408260893500677e-07,-1.2127780715778685e-05,-9.364390035824419e-06,-5.1690499171413364e-06,4.780652042048083e-06,-4.209617143683161e-07,-1.248197634278365e-05,4
8.291942788506602e-06,-2.929656832375916e-07,2.211496642663452e-05,3.5301350127734777e-06,1.4064369885665932e-06,-1.5877418834710226e-06,-1.1960384726068949e-05,-0.0001433647917649327,1.0861385015194326e-05,5.496044011326273e-06,-1.7579064747501897e-06,-1.0562622282525103e-05,4
8.4492580097857e-06,-1.1002473935134434e-06,4.590060501899903e-05,7.376366718924712e-06,1.6196449898079497e-07,-2.1505738037158756e-06,-8.517780169228323e-06,-0.00019225296819297256,1.7825032033106602e-05,4.873896417045379e-06,-3.04160500281769e-06,-5.628254001790664e-06,4
3.182097223403465e-06,-7.181945211655138e-07,5.082585822825072e-05,1.0889362495588648e-05,1.0969845382952844e-06,-2.099588447931019e-06,-5.171015896257904e-06,-0.00012027554414616378,1.889722705874069e-05,4.227318466793097e-06,-2.7295141854937876e-06,1.128872635872711e-07,4
-2.2602374553903433e-06,-1.4962516041819301e-06,3.946506994907429e-05,1.4775837064553654e-05,3.4732373713720742e-06,-1.908624224515758e-06,-2.712916517720108e-06,-1.404754617303759e-05,1.8316631360289166e-05,2.281726185060019e-06,-1.729500421122475e-06,1.3293856038059035e-06,4
-2.2397710604151636e-06,-2.295324972632468e-06,2.5916838972892546e-05,1.7443084302953204e-05,3.0215238341875734e-06,-1.7505672525422515e-07,-5.748477598681612e-07,4.406999943620158e-05,1.8647005304498702e-05,-1.60913322252584e-06,-9.211726068055352e-07,-6.336905868440669e-06,4
-2.958071279975745e-06,-3.6969672354261314e-06,1.6496282348608316e-05,1.4157074778046053e-05,-1.0050733195498699e-06,1.0466418502846385e-06,1.2509042301420568e-06,5.3656608925528425e-05,1.8686063651152085e-05,-4.099068874050285e-06,-3.751881995708091e-08,-2.084885223993934e-05,4
-8.968179054100968e-06,-7.081221024968009e-06,6.887236968893766e-06,3.2836408970314933e-06,-4.233517839441385e-06,-4.914535478559703e-07,2.170649061793797e-06,4.839205716574962e-05,1.753315930378885e-05,-2.5846350297408516e-06,1.3552728357711352e-06,-3.07161224000032e-05,4
-1.1312834996731488e-05,-7.623189137308249e-06,2.09943057782609e-06,-8.711303420452065e-06,-3.953339465894133e-06,-9.187385515319615e-07,2.891254260695526e-06,3.742516837656782e-05,1.5140328637062285e-05,2.60734402249742e-07,2.4212262146520517e-06,-1.6008454191386527e-05,4
-5.9474456837138106e-06,-2.345282667758802e-06,7.016363980134525e-06,-1.3805056019367573e-05,-1.870424107437433e-06,-5.037496462619146e-07,5.345914936711909e-06,1.6025979027988565e-05,9.194910506986519e-06,2.798288947805347e-06,2.2570406265628982e-06,2.4100740477819506e-05,4
5.658087329468228e-07,4.572550397544488e-06,8.48273625255167e-06,-1.2480239120172379e-05,-4.797801588368927e-07,-8.905442926005029e-07,8.381719262656567e-06,-6.630162020544936e-06,1.5981239324638085e-06,5.529958691058757e-06,2.8434570855921997e-06,6.18281254025996e-05,4
4.112547782313176e-06,7.781385453499402e-06,-4.231230108733934e-06,-1.169533290954025e-05,3.219875549176088e-08,3.9014651612873654e-08,8.962282106961469e-06,-1.8158137400163412e-05,-3.6248725280834523e-06,7.074035960143246e-06,3.690255894945186e-06,7.543422159519052e-05,4
4.80192980457113e-06,4.86084142590472e-06,-2.2597144930362112e-05,-1.511872475233939e-05,-1.0877009245067865e-08,9.167986159516107e-07,7.833238312440702e-06,-1.321334508750183e-05,-9.22345831319586e-06,6.4299353794126945e-06,2.200542653405845e-06,5.745495923910639e-05,4
6.014484863618537e-06,5.787031286868694e-07,-3.350362146836534e-05,-1.797888411679933e-05,-9.294768542468159e-07,4.639713986271263e-07,6.017626218186596e-06,5.448737153042942e-06,-1.4908479034471826e-05,2.9856463003548578e-06,-1.858128009395283e-07,1.6751363118575243e-05,4
8.468349163299525e-06,1.8953129556705273e-06,-3.267914479201059e-05,-1.3985188852092587e-05,-1.5854877938240997e-06,-9.190859206264175e-08,2.6453891499232376e-06,1.904510681697924e-05,-1.6654515024860392e-05,-3.2044954358696102e-06,-2.0837761776386693e-06,-1.7756495971745503e-05,4
6.306782270538801e-06,7.693112654127264e-06,-2.5333764045400864e-05,-4.353892772234906e-06,-9.249808761306137e-07,-1.0273363803379358e-07,-6.508109040879791e-07,1.1720606273094394e-05,-1.4971270800932859e-05,-9.205667763457291e-06,-2.60353538869801e-06,-3.226398972551553e-05,4
-3.9559286734610945e-08,1.133292315820005e-05,-1.769438606207681e-05,5.130679917134747e-06,1.1883700211421662e-07,5.267831785624959e-07,-2.6123232608556545e-06,-3.980138663132342e-06,-1.055026562559652e-05,-1.3467253872710043e-05,-9.355512543059739e-07,-3.684755409234513e-05,4
-4.4302252811881405e-06,6.548985934039781e-06,-1.0300350386823054e-05,1.0185766898736433e-05,7.785301245066522e-07,5.789689725684733e-07,-4.21169344622263e-06,-4.796186462048756e-06,-5.2671446383234805e-06,-1.6686467969167007e-05,1.5463788743338899e-07,-3.929313765269937e-05,4
-7.0949052008429924e-06,-4.3620194354087275e-06,-3.190290109483915e-06,1.0906502433096308e-05,1.4610408564940068e-06,2.361239128807535e-08,-6.10229592243388e-06,1.3325217632848827e-05,-1.3423437576928794e-06,-1.8185932353753138e-05,-1.021958383375962e-07,-3.7869771349845765e-05,4
-8.58302821837028e-06,-9.747056577151823e-06,2.8435811551075542e-06,9.93969521973878e-06,1.934002117774017e-06,-9.171532350502047e-07,-8.24323735684163e-06,3.320765654211864e-05,1.0997375900149188e-06,-1.575116122275601e-05,-3.9378001273656446e-07,-2.9515460566520253e-05,4
-5.551420352728353e-06,-7.846616737022472e-06,7.205336197728055e-06,7.81098601581105e-06,1.1649085305421537e-06,-2.465873110085189e-06,-9.21529558405365e-06,3.333413136753649e-05,1.969518306436997e-06,-5.9072098456704986e-06,-1.673302456888746e-06,-1.8819933954852756e-05,4
8.429088609485795e-07,-5.880741093050244e-06,7.795100466459608e-06,5.490197259632516e-06,-1.5210663060287703e-07,-2.0041531233100925e-06,-7.967247730937332e-06,6.265467777075273e-06,2.571298769816011e-06,1.0984428918712673e-05,-2.7138124935792296e-06,-1.2177693504924254e-05,4
5.018827450082335e-06,-2.952042706924424e-06,6.326527925621062e-06,4.488871387984736e-06,-1.7722269484676542e-07,1.0619430537196439e-07,-6.349721196865988e-06,-3.636786059774793e-05,2.8338800769433917e-06,2.786623385201289e-05,-2.0068076818803224e-06,-9.589540547624195e-06,4
5.235422420396228e-06,6.943483222511449e-07,7.150369876234602e-06,4.247687733747156e-06,1.023570541715025e-06,9.429656175246655e-07,-5.027307094262679e-06,-6.87467632935747e-05,3.0139030590260944e-06,3.739317207971914e-05,-3.495053593504904e-07,-1.0721623527896261e-05,4
5.1380500842615415e-06,6.000647439561169e-07,1.0273682676946094e-05,4.3853473633108e-06,2.1068609215284597e-06,2.4285258254889757e-06,-5.828647025713864e-09,-6.695010705098743e-05,4.79722273800266e-06,3.580799523239396e-05,2.2382738373134277e-06,-1.644494228063709e-05,4
7.240459413962912e-06,-1.3136218017259498e-07,1.2968611427557373e-05,3.5664007524493286e-06,2.2805585012496854e-06,4.4084690782222285e-06,8.193555963785374e-06,-3.1897411653719016e-05,5.793566818481356e-06,2.3758290218643746e-05,3.5270926962440677e-06,-1.7848813941004043e-05,4
8.161227542195613e-06,1.0626304016618074e-06,1.3356071700922538e-05,1.2820013602999922e-06,1.8211301022715727e-06,3.1732037264854318e-06,1.2090466451012556e-05,6.716440835019825e-06,4.130724643085157e-06,6.719461287295531e-06,1.4734743970654034e-06,9.33915609555346e-08,4
2.8513370932159704e-06,1.7676933499806833e-06,1.2110647962882054e-05,-1.4917788499947065e-06,1.119417348554064e-06,5.182061622016588e-07,8.824017469967319e-06,-3.435443593639157e-06,1.7382823194298627e-06,-7.522664104881805e-06,-9.672080078193144e-07,3.3137961356559875e-05,4
-4.848650601501496e-06,2.594027867939415e-06,1.0536732494631476e-05,-4.3339332708816214e-06,-4.522782137858569e-07,-1.1585571501223505e-06,2.9626719748778563e-06,-6.390983700814143e-05,-2.6079488661609956e-07,-1.6548833709960333e-05,-1.4266466825639172e-06,6.547191093042157e-05,4
-6.095769507818428e-06,3.765489442220742e-06,8.154116046468945e-06,-4.328863901856846e-06,-1.6356960801419636e-06,-2.924996507159723e-06,-2.3483252647727956e-07,-6.647623804446025e-05,-1.953651823508372e-06,-2.338688384713606e-05,-8.784441077016632e-07,8.762180984792339e-05,4
-2.110563935501355e-06,2.6429469325463177e-06,4.577558805191437e-06,-1.5448987055311622e-06,-8.360639906685825e-07,-2.839670859756173e-06,-3.259299548632455e-06,4.15463308717113e-05,-2.5883322846854293e-06,-2.478791785657909e-05,-2.2427820549154258e-07,7.89116532970235e-05,4
1.68961130249504e-06,-9.573120759684712e-07,6.906910810150945e-07,-3.2702083157522523e-07,-6.023835326435913e-07,2.88399672223427e-07,-8.43880543956383e-06,0.00014856156046684255,-1.9958814046538426e-06,-1.7598919253544483e-05,6.87051440712749e-07,3.263150941189821e-05,4
3.8102000252792116e-06,-3.6546791295952345e-06,-1.5029225431832952e-07,-1.5135369985088347e-06,-2.5459172476474157e-06,1.981760255500012e-06,-7.254168914335652e-06,0.00016180551457253882,-1.4737228701142124e-06,-8.768336131289542e-06,1.5223009639764683e-06,-1.3981848799506644e-05,4
1.569723818444371e-06,-3.051840477175743e-06,2.140581183990745e-06,-4.137945102994012e-06,-4.410051165719881e-06,-2.8180937874288667e-07,3.7555482083787722e-06,0.00011596478221422821,-2.632304856310493e-07,-3.809620575230837e-06,1.920226669458899e-06,-3.0277205826373687e-05,4
-3.383728927227435e-06,-1.255705242347934e-06,-1.282097809733173e-07,-6.657859274464804e-06,-4.040607573492315e-06,-2.5794960029363057e-06,1.5881830673707546e-05,6.946185936023992e-05,2.596166847262911e-06,-1.5111408194140185e-06,2.1471330543298113e-06,-2.3088695582146386e-05,4
-5.6526328958886116e-06,-1.3397074158341085e-07,-8.463669395267176e-06,-7.498338601412008e-06,-2.0341444980638976e-06,-1.5362588200273652e-06,2.0204068299197757e-05,3.0353745551890436e-05,3.847503900352517e-06,1.6118026023531607e-06,1.4248071520141317e-06,-1.2869709684047124e-05,4
-6.956248606255232e-06,-8.7008522621579e-08,-1.4751902566906633e-05,-7.418843890707696e-06,-6.753043383351326e-07,6.816668453085587e-07,1.7007486271869425e-05,-4.933693444571442e-06,1.357262900705364e-06,6.385269269823052e-06,-7.742030575576314e-07,-1.2216370660927302e-05,4
-1.012394840441876e-05,-2.2209658039923797e-06,-1.4671768312941038e-05,-6.415291693523597e-06,3.3825296648714507e-07,1.867309796235386e-06,1.3136334273643089e-05,-2.2677127445422237e-05,-1.0551489433922388e-06,7.4441440833687214e-06,-2.934198968387297e-06,-1.7121550727353587e-05,4
-1.0915069965254367e-05,-3.185172429181679e-06,-9.832842940373522e-06,-3.113265016049021e-06,1.736634576451724e-06,2.3682884919008366e-06,7.5573427024710364e-06,-4.0123697489591645e-05,-4.941566364523882e-07,2.3720596337741366e-06,-3.009147138451493e-06,-2.2523242088885824e-05,4
-6.650691596935879e-06,-1.1562993433581455e-06,-3.912106516712565e-06,2.394013404466703e-07,2.606652631628072e-06,1.8191212727500423e-06,-3.534810689508656e-06,-0.00010344617992028731,1.9941068155927388e-07,-4.6159727006113105e-06,-1.3412417723294284e-06,-3.147051617558132e-05,4
-2.4889632620432607e-06,5.234909287564536e-07,5.003276904032338e-07,3.5612732108696124e-07,3.331617502206358e-06,6.080146016003781e-07,-1.611077015841082e-05,-0.0001938666988913034,-6.002027527933099e-07,-1.0757354908483745e-05,-3.2759099355883956e-07,-4.332293151596772e-05,4
-2.4530384015608183e-06,2.1358361648233866e-06,2.1172503448798664e-06,1.654553476806616e-06,4.049481642371716e-06,-3.8094459725179126e-08,-2.485431181413679e-05,-0.00020745386390993366,-1.6237646504957122e-06,-1.2968859211634063e-05,2.003282838942855e-08,-4.9743055960075144e-05,4
-5.1588234125333905e-06,2.607217342207887e-06,-7.548325775496031e-07,8.24059859098088e-06,3.925913985147973e-06,-6.308720504345569e-07,-2.8815831259240218e-05,-9.057172537919917e-05,-3.48463790552486e-06,-5.443661197342696e-06,4.440801407595157e-07,-4.400254043568697e-05,4
-5.9473699409775444e-06,1.6535980518503855e-06,-5.491157415168063e-06,1.4637285058701213e-05,1.5955456796699821e-06,-1.978064156139259e-06,-3.0349086366588682e-05,5.0645619862982876e-05,-5.166110796007295e-06,1.0592106380990096e-05,1.6253469852315368e-07,-3.4222299991291396e-05,4
1.946845639881297e-06,2.712953075590193e-06,-8.750809187046241e-06,1.5590810812525083e-05,-2.0047717569828757e-06,-3.3733863083733828e-06,-2.6780369575840496e-05,7.305511028797588e-05,-3.1092245784824867e-06,2.2855213921645233e-05,-1.7081930587449475e-09,-2.3856854272946738e-05,4
1.6082540814889067e-05,1.6102811263093451e-06,-1.4553713378194324e-05,1.2174435670198933e-05,-3.170216055526653e-06,-3.2704006694830873e-06,-1.3929458004850837e-05,-6.61475079750967e-06,1.359565750039904e-06,2.193593619780473e-05,8.963420163274193e-07,-2.86708783736052e-07,4
