emg1,emg2,emg3,emg4,emg5,emg6,emg7,emg8,emg9,emg10,emg11,emg12,label
-1.5606175087920356e-06,-1.675744907458357e-06,-3.950327113254812e-07,-3.135254187347648e-07,6.977142268760593e-08,3.7333356338796526e-07,8.960210819335473e-07,-3.4310387064015612e-06,1.0353813423297651e-07,-5.012132372366787e-06,1.113721904586657e-07,1.8384049297061227e-07,2
-5.819187906807544e-06,-7.441484581875927e-06,-3.987219138501405e-06,-7.978159795160783e-07,-2.6171504459784825e-06,5.247628064335659e-07,-7.955219496363699e-06,-6.091280915063519e-05,-2.1521979687836678e-07,7.105806777924698e-07,6.69215004344181e-07,1.7893643433117465e-05,2
-4.720116986733037e-06,-8.550659948334351e-06,-5.185524337916743e-06,-8.889628996186093e-07,-3.376270289559738e-06,-1.2563751554011986e-06,-2.25342346320601e-05,-8.597880432410056e-05,-7.322989600494455e-07,-2.081607761318511e-06,-1.2053459234902658e-06,8.532033280527176e-06,2
-5.373600571371621e-07,-6.595043675858391e-06,-4.275323206793816e-06,-1.4162484473001308e-06,-2.2107903352312064e-06,-3.86782802010527e-06,-3.5551582517297066e-05,-6.395761184479356e-05,-4.957692054745545e-06,-6.098734637044431e-06,-2.965028225883291e-06,-1.1860863143616563e-06,2
2.8006355317982898e-06,-6.20080765517738e-06,-2.7187070843782216e-06,-1.5752792914346786e-06,2.147102540611533e-07,-4.861876544725938e-06,-4.4219935848538805e-05,-1.981480131708419e-05,-9.840710672837206e-06,-8.21474737856816e-06,-2.225867771748117e-06,1.0584619246212051e-06,2
2.0257768559816817e-06,-8.87794827544753e-06,-1.2730929816641725e-06,-7.812900812581138e-07,9.700538871421924e-07,-3.6870630552975467e-06,-5.029714050495185e-05,4.884585125061402e-06,-1.1667346102120337e-05,-1.1743044563148313e-05,-1.3531274126352249e-06,1.8184762228744217e-06,2
-2.9618219903779216e-06,-1.410940827736068e-05,-9.824432290664535e-08,1.8861754910311812e-07,-1.3352509951015016e-06,-3.1383753801728277e-06,-5.0310125159215204e-05,4.558877570504952e-06,-1.142643343591763e-05,-1.5965259828863456e-05,-1.4443152926018712e-06,-4.877772949246921e-06,2
-6.0998119725791345e-06,-1.9255091711948177e-05,3.430701085722177e-07,1.319266169521459e-06,-2.5472749857834148e-06,-3.0646088994769016e-06,-3.768894738092183e-05,3.970387881635799e-06,-1.0010837486350071e-05,-1.8796671458613473e-05,-7.358117828738585e-07,-1.8402367346403524e-05,2
-2.8855034701521765e-06,-1.5720547896856863e-05,4.578773720468234e-07,1.7771779538273846e-06,-1.74549314002985e-06,-6.816088573297285e-07,-1.4044770922374211e-05,1.0446208854989773e-05,-8.47125883961705e-06,-1.702837686686758e-05,6.030893462052101e-07,-2.808748800688646e-05,2
2.304533373819575e-06,2.6990108387592164e-06,8.085793047911524e-07,1.0756409942610386e-06,-2.0234308398455364e-06,1.4896019258661566e-06,6.44132152928962e-06,1.2531033667513013e-05,-7.01975627970561e-06,-1.1156952021334104e-05,1.503183809098994e-06,-2.2847154847985684e-05,2
3.0501530022882966e-06,2.672155119261218e-05,1.4501497573494086e-06,-3.6031147342104824e-07,-2.2107562461805798e-06,5.249823273680884e-07,1.700747603486735e-05,7.660227310887626e-06,-5.4310773753152735e-06,-4.924082018410521e-06,1.1471526879944883e-06,-5.934389585980466e-06,2
9.104977981815897e-07,3.640112409662933e-05,1.9252080801889564e-06,-1.1479881471657052e-06,-8.526776255447146e-07,-1.8721512898808036e-07,2.205689960357987e-05,2.896423732176405e-06,-2.5262239200606298e-06,1.424499871424231e-06,-2.2427419489754708e-07,1.1030230121349266e-05,2
1.1822166093803206e-06,2.4290834812907532e-05,7.364864614717127e-07,7.06880012261732e-07,9.148260864465387e-07,2.68028572819006e-06,2.3135558986939925e-05,3.817581693805459e-06,4.1505088050328615e-06,7.97578606370051e-06,-2.3514849131831738e-07,1.875572444071668e-05,2
3.7023639265807488e-06,4.483780055014227e-06,-7.247919060353493e-07,2.2051089025136244e-06,2.7386116833921102e-06,5.993014247832964e-06,2.2637201372449047e-05,8.646776594052657e-06,1.1239078062178094e-05,1.3502931435039568e-05,1.6381146518475631e-06,1.6832750112167558e-05,2
5.370611050675463e-06,-7.423137401623655e-06,-2.822722456464539e-07,9.10741238175501e-07,4.094851647231483e-06,6.85724571520688e-06,2.304966595375012e-05,1.2278215131557178e-05,1.3117165140927873e-05,1.7733467470343042e-05,3.0626283055031844e-06,1.2820917939925295e-05,2
4.4463850034414094e-06,-9.039265193145046e-06,3.1866308485979407e-07,-1.011196584255145e-06,4.302065813207785e-06,6.5242041892056655e-06,1.9973393950490522e-05,1.2159480670765148e-05,1.12105493366268e-05,2.075451550526735e-05,2.7235282480187125e-06,1.0811898625483764e-05,2
8.595703917062671e-07,-6.263047814794324e-06,-9.472654165506181e-07,-2.2334893180998613e-06,2.6741608208793057e-06,4.424650808557434e-06,1.1078386757670138e-05,5.382598596341093e-06,1.0410442653079397e-05,2.1042030749441292e-05,1.3143021223352829e-06,7.704259970700067e-06,2
-2.204760447431034e-06,-4.506984725124417e-06,-2.5571258838020136e-06,-1.218102760619709e-06,-1.5509745319980653e-07,5.066364416372083e-07,4.703204802270161e-06,-7.3116614590786655e-06,1.2624242451887949e-05,1.8174479302059497e-05,-6.577835305747003e-07,4.5812561293475224e-06,2
-3.0256694287347724e-06,-4.333857300181967e-06,-1.119306514488526e-06,1.1550258571873046e-07,-1.2767160708069497e-06,-2.1796528963504674e-06,5.902300403115961e-06,-1.9550433807100065e-05,1.5147154917674113e-05,1.387209757282844e-05,-2.470768841104103e-06,4.111011744251309e-06,2
-3.83798612069482e-06,-4.085873644470546e-06,1.5595032725316348e-06,-6.88128949881726e-07,-4.2431839435035085e-07,-2.288044515740954e-06,4.5413647961390905e-06,-2.661676990489335e-05,1.3647510670386949e-05,6.897107374054123e-06,-2.0537226136962595e-06,4.4979197474682545e-06,2
-5.10333835880659e-06,-3.802082503023648e-06,2.140229142053303e-06,-3.3050216876885517e-07,5.46630752643186e-07,-3.2022179971438025e-06,-5.2122785099310865e-06,-2.4089887038709245e-05,6.167581772295804e-06,-2.017560982821342e-06,-5.104514067274824e-07,6.173395282257047e-06,2
-5.749391919152171e-06,-4.7152363087297665e-06,2.572179398573974e-06,9.038606775075853e-07,1.0469823765416192e-07,-8.2665324252814e-06,-1.2394021503841275e-05,-5.62388956053025e-06,-5.59355813008011e-06,-7.596405301675681e-06,-7.134777018428134e-07,7.866785572765969e-06,2
-4.096482413311444e-06,-5.4603109801836855e-06,2.8054846894789865e-06,6.627391874395445e-07,-2.838346524423401e-06,-1.1854440642998594e-05,-1.048705090109737e-05,2.3786792997177857e-05,-1.67190140747266e-05,-9.261043035582019e-06,-1.3299515972504772e-06,5.224649733872886e-06,2
1.1366989311654942e-07,-3.4336128193837136e-06,2.2818986105302735e-06,-1.0607890392977914e-07,-5.013984628898289e-06,-8.529072821097858e-06,-7.937713564836924e-06,4.067812049614971e-05,-2.1870367249637448e-05,-1.072757255048394e-05,-1.5088987677348175e-06,-9.98452169478759e-07,2
1.8912493090526463e-06,9.572119926529828e-07,2.0829306097485653e-06,-1.606893199635435e-06,-3.6742069700543084e-06,-2.760190971128049e-06,-9.301310712243674e-06,3.0459269377410915e-05,-1.694870434533216e-05,-1.3733723815426167e-05,-2.0365147695863874e-06,-7.577358222204989e-06,2
-1.1025731419414552e-06,4.901389234419038e-06,2.1250742988236926e-07,-2.825989518227707e-06,-1.6298930750791982e-06,2.0449848222494378e-06,-6.922966259846396e-06,6.56326851258915e-06,-4.37781892094203e-06,-1.768777003559472e-05,-1.5830783294653897e-06,-1.4429221450042913e-05,2
-3.847894441141328e-06,4.965808204260224e-06,-2.175913855410358e-06,-2.5378971554320442e-06,7.859661965015723e-09,6.0177240925973375e-06,4.738856135808266e-06,-1.1668757070331e-05,4.116514099736525e-06,-2.0576603146862283e-05,-2.0868251925370026e-07,-2.2802135672415003e-05,2
-2.9838742690519228e-06,1.79271511757436e-06,-2.8202582654568146e-06,-7.583056906216895e-07,2.4949088756758088e-06,8.135014649366599e-06,1.9053180543780598e-05,-1.8939106262517712e-05,2.1694720548218792e-06,-2.0929100036511988e-05,1.4616129545067085e-06,-3.1946801772183044e-05,2
-1.5209623363887124e-06,-6.825267362733503e-07,-3.4601930079208354e-06,2.7280438411060562e-06,4.993747821482577e-06,7.891003272239565e-06,2.4587371596927267e-05,-1.963593646638804e-05,-3.368479277227915e-06,-1.8480700196147346e-05,2.912179524287602e-06,-3.9649645128264136e-05,2
-7.684126615868827e-07,-1.1265739576178415e-06,-4.0367225161764215e-06,4.785464922111913e-06,5.983653773659979e-06,5.574696734121337e-06,2.0296329195033565e-05,-1.4962656138895678e-05,-5.3134540202532405e-06,-1.1219898677215329e-05,1.94917573089775e-06,-4.346667023609966e-05,2
3.235854813680635e-06,5.138812398903753e-07,-3.0005534789820493e-06,3.912965694646095e-06,4.3558616158399664e-06,2.72926197556987e-06,1.2935122610253719e-05,-4.3793667678348545e-06,-3.91476998520393e-06,1.5697861354005017e-07,1.705840489972956e-07,-3.8928894310913157e-05,2
1.0136187546854028e-05,2.516875674351986e-06,-5.584220278137126e-09,2.801437881415208e-06,9.631061553444558e-07,3.855289595706182e-07,3.764440316826673e-06,7.977489201392457e-06,-9.850986268334597e-07,9.3876578386335e-06,5.605558562287486e-07,-1.7393424506585887e-05,2
1.5428836883852327e-05,2.6982138181158112e-06,2.788720729602216e-06,1.5328564511856017e-06,-1.558637503572159e-06,-1.11233288355427e-06,-9.539584896789015e-06,1.9009982804159663e-05,2.73332622215633e-06,1.3733028178088171e-05,2.0777701455660525e-06,2.0745278937602483e-05,2
1.642545820336992e-05,2.0749333506817627e-06,2.366674091234212e-06,-9.971037256758893e-07,-2.597295546529335e-06,-1.132478844209509e-06,-2.5610869250201018e-05,2.3216233632492956e-05,3.7549710207265547e-06,1.521498113241213e-05,2.414948718928163e-06,5.35647845547418e-05,2
1.1003900956477185e-05,9.669961613527475e-07,6.525732585281282e-07,-2.7498179757214633e-06,-2.6186736332345726e-06,-1.4516564425902468e-06,-3.81413242148759e-05,1.650642324764324e-05,1.1272288588788694e-06,1.3454682336667823e-05,-4.736311284292146e-08,6.341197881828662e-05,2
2.515994622202254e-06,-7.058308831165907e-07,3.6621427187100496e-07,-1.1838656034962997e-06,-2.0862194675451483e-06,-3.654967048099658e-06,-4.4424249781814054e-05,5.742322549791965e-06,2.613676817632592e-08,7.841730124453045e-06,-2.2683228932379996e-06,5.591774949529169e-05,2
-2.0802551872764914e-06,-6.821822155576607e-07,-6.231570939556191e-08,1.0163813188882607e-06,-2.5853600209538934e-06,-6.492273469831671e-06,-4.554452979238106e-05,-3.6764473410188666e-06,2.5335957906028824e-06,9.84520460087264e-06,-1.037330138094938e-06,4.449960528278703e-05,2
-1.741884578325284e-06,1.2631908677464838e-06,-8.330376312360132e-07,6.2169319476232e-08,-3.5826928717900917e-06,-6.914945185681378e-06,-3.4033591903373446e-05,-1.0348244174929636e-05,5.807084901887799e-06,3.2154651172582345e-05,3.265875469819627e-07,3.7572903220432094e-05,2
2.4627305669271016e-06,2.1978792512978307e-06,-9.923053275560479e-08,-1.8131274828276435e-06,-2.4259963223908012e-06,-3.0926249154458524e-06,-7.694437395694458e-06,-1.2655479394972776e-05,5.702718003380243e-06,5.596343602284586e-05,-2.0405178101207285e-07,3.0290951777116552e-05,2
7.633115541630374e-06,1.2118903016147143e-06,2.6335273305934466e-07,-2.1756629610638243e-06,1.7999314920579708e-07,1.3496132483696807e-06,1.7920356605140617e-05,-1.158032884102141e-05,9.150548856561846e-07,4.8650404353017646e-05,-1.0392983791748408e-06,1.8285556347157273e-05,2
2.8472368939275294e-06,2.7934972983151985e-08,-9.142921750417502e-07,-2.074379981913531e-06,7.54593729710426e-07,3.0294754696676752e-06,3.3574663699642236e-05,-5.450114550308079e-06,-1.9566168329860146e-06,1.1462673599131443e-05,-5.612371139119795e-07,9.14394450396894e-06,2
-1.56809869298082e-05,-1.315964702634894e-06,-4.573869673956058e-07,-1.7999543514774217e-06,-4.2978293517806764e-07,3.014212764828028e-06,4.521390501426831e-05,4.280579708495088e-06,5.935088821995808e-07,-2.732715136472046e-05,6.88254802794798e-07,-8.970678446462809e-07,2
-3.614682784393469e-05,-4.60304887616816e-06,9.459750823758148e-07,-8.837794713632639e-07,-3.078741472848419e-07,1.7821883049523818e-06,5.240656252915926e-05,6.1346915412766905e-06,2.229884710254695e-06,-4.926079315611996e-05,-9.522865591920876e-09,-1.9803379706306602e-05,2
-5.630569618039967e-05,-9.638428095970702e-06,1.280891083284876e-07,-6.418539219325101e-07,7.885146871612936e-07,6.290753898743679e-07,4.759331295838206e-05,-6.6898496216190254e-06,9.235081243109751e-08,-5.4681886924247635e-05,-1.826654904692298e-06,-3.995837400562575e-05,2
-7.231326143909613e-05,-1.2993230886497147e-05,-1.72193106534579e-06,-1.4753426262329941e-06,1.1196923422331257e-06,1.9436265919927056e-06,3.41686442759478e-05,-2.465137426369102e-05,-1.8871685579659205e-06,-4.964107846787468e-05,-2.4215539661536623e-06,-5.2450196980185467e-05,2
-4.784306400234616e-05,-9.279854052404975e-06,-1.3659296298808428e-06,-3.268969693723489e-07,1.493799902534904e-06,3.6018056225722045e-06,1.9908489612346976e-05,-3.153332225426561e-05,-1.4103121830985376e-06,-3.7613474600592205e-05,-1.2138556130167994e-06,-5.425719563230651e-05,2
2.8636057514818288e-05,4.103819840998601e-06,3.0783615930169703e-06,3.1168004268268795e-06,3.200591904847138e-06,2.8961924449275557e-06,3.060788839107023e-06,-2.5004014954082263e-05,3.3190930409580856e-08,-2.0585604942974637e-05,8.084044570623875e-07,-4.9053309534605995e-05,2
9.472297162895681e-05,1.7802144689320336e-05,6.833523789869484e-06,4.492813664521094e-06,4.678193016280778e-06,1.349815446513931e-06,-1.9211408306024167e-05,-2.111877920244824e-05,8.544877280567969e-07,-2.0253079401677603e-06,1.043593908905058e-06,-4.367197241376391e-05,2
9.351390345263242e-05,1.753343450988805e-05,4.203357168540311e-06,2.382214013907586e-06,3.5941869065956767e-06,1.7193039219900192e-07,-3.997062135202525e-05,-2.736632378407233e-05,1.1619366736927258e-06,1.2537310728223639e-05,8.228811992321724e-07,-3.752854160516324e-05,2
4.596352078002512e-05,6.508781341323964e-06,-4.556765724108007e-07,5.47130078609402e-07,9.60639791519156e-07,-4.613534627166476e-07,-4.8125469532540036e-05,-2.556666257049463e-05,9.273106341896322e-07,2.004219828954731e-05,1.8672155828489672e-06,-2.842270212502016e-05,2
5.128260640190263e-06,-5.631449396401956e-07,-2.493671148407617e-06,9.659237952806423e-07,-8.814690903174735e-07,-6.168914008961215e-07,-4.382068618432943e-05,-2.5284083943104905e-06,9.018733673606862e-07,2.3327062505458602e-05,1.3759620205918324e-06,-1.5027919239745655e-05,2
-9.879456122028244e-06,-1.5963461604032025e-06,-2.5203644798926165e-06,6.60604069070523e-07,-6.394913401157254e-07,-1.3759023394370368e-06,-3.406032254641125e-05,2.3700716653253085e-05,2.194174688329309e-06,2.4762958626441643e-05,-8.039262534213592e-08,2.095720844829345e-06,2
-1.2154752044420808e-05,-2.310690881528219e-06,-1.2681305571248948e-06,-1.0470708688008183e-06,2.9156575132686425e-07,-1.5696889815736672e-06,-1.795903930930735e-05,3.433643662833019e-05,4.566125832098327e-06,2.0606040646821455e-05,3.732240215266977e-08,1.4061522876750301e-05,2
-1.3573613211253477e-05,-3.015594905070867e-06,-1.4581907036518917e-06,-1.1058929397293432e-06,-4.458971853681536e-07,-5.589801431441082e-07,9.994271556075471e-07,4.10747477570257e-05,7.160624443456466e-06,9.825418967927183e-06,-5.187874637750805e-07,1.70710224881856e-05,2
-1.4506831006615108e-05,-2.3029926075185813e-06,-3.027221105514682e-06,1.1144184931338931e-07,-1.08037328167374e-06,-3.5745415554295257e-07,1.307493821707242e-05,5.89438745558296e-05,5.364151980667027e-06,-4.814839137409292e-07,-2.128237793569657e-06,1.9209633223718464e-05,2
-1.3776771109845497e-05,2.5202548470526298e-08,-1.8529819943705528e-06,-3.6980563139481554e-07,-1.0411455012611609e-06,-7.660528245206282e-07,1.9009314901860305e-05,8.10259947923533e-05,-5.220928705860844e-06,-4.14634091537357e-06,-1.1556869221677227e-06,2.9286054245909323e-05,2
-1.289257002719356e-05,1.3685762243954232e-06,1.2217389031802684e-06,-2.197842642192133e-06,-2.5442388971210843e-06,-6.194089124994786e-07,2.192348554853467e-05,9.486516241134153e-05,-1.65848905924891e-05,-4.164335413434411e-07,1.335526027457014e-06,5.25590282643585e-05,2
-1.2991527051889936e-05,-1.9672272070662224e-06,2.1428188982155527e-06,-2.4407598357911865e-06,-4.151052098192992e-06,-5.271014186643727e-07,2.143697187738921e-05,8.696502057225286e-05,-1.549093474624198e-05,6.18184425014252e-06,2.1726019020805538e-06,7.966923540452786e-05,2
-1.4043962744800518e-05,-7.1299307930279855e-06,4.526049536170723e-07,-1.1345934937077404e-06,-4.450101029139773e-06,-1.269425262136489e-06,1.7956339628349863e-05,4.782710648743241e-05,-3.4512691963816146e-06,7.666668742953921e-06,1.2412109937304594e-06,8.581294718348552e-05,2
-1.4084875480540236e-05,-9.264727848550178e-06,-1.1001373446846104e-06,-7.563771661055844e-07,-3.933390645322629e-06,-2.247170788369509e-06,1.0402107029616892e-05,-9.037431411260633e-06,5.26446333375612e-06,2.0692462632362115e-06,-1.2044108654786951e-06,6.151334683618761e-05,2
-1.0263697148961674e-05,-8.55509335465056e-06,-8.792348481785876e-07,-9.783013703159997e-07,-2.4904284377421377e-06,-3.1412456644590086e-06,3.013259411224703e-06,-5.824419915746124e-05,1.7754813380401107e-06,-4.8187575975675686e-06,-2.3114325357255697e-06,2.255446131449694e-05,2
-3.0100788949554346e-06,-6.4133040795064945e-06,-2.6746933623838257e-07,1.0118615912250985e-07,-9.747527244203714e-07,-3.880530058855842e-06,3.194903928597886e-06,-9.078887701943078e-05,-8.398054526510706e-06,-8.174535731216252e-06,-2.9189051211429927e-07,-1.3250440682956723e-05,2
4.9598622686808795e-06,-2.3965884628528503e-06,-2.4128151998425494e-07,2.172678083999692e-06,7.135559956983801e-07,-1.4714761418938861e-06,9.694656863205078e-06,-0.00012297370688293236,-1.151806876372249e-05,-7.292571685741242e-06,1.115790264269144e-06,-3.730322903501101e-05,2
1.0999455403649113e-05,3.348393211138919e-06,5.5938717055886295e-08,3.653158055283663e-06,3.04883127386663e-06,3.4950878582398353e-06,1.3446076859906561e-05,-0.0001523051277819336,-2.9451069374624085e-06,-3.360935904075813e-06,7.324991973849509e-07,-4.867154541194731e-05,2
1.2897792859713598e-05,8.403758009778927e-06,6.35463383775074e-07,3.365982645982238e-06,4.859163071749357e-06,5.124405786390027e-06,4.625774199063671e-06,-0.00012925631521660608,8.063917698113468e-06,2.2477771788485944e-06,8.935145080561016e-07,-5.020763777719326e-05,2
1.2092529018165891e-05,1.2066493954455015e-05,2.5289975006528066e-07,8.766974746219803e-07,6.015434608760821e-06,3.1283806885479535e-06,-1.4517118828440379e-05,-4.1079184138062915e-05,1.373419940894353e-05,6.8342647490251356e-06,1.4026777859011953e-06,-4.425614564166506e-05,2
1.1425068628776065e-05,1.407588453895242e-05,-6.229172057103755e-07,-1.9382169871301265e-06,5.25385872785271e-06,1.0490798445178054e-06,-2.7085204430100898e-05,4.464924786199609e-05,1.3397176286654244e-05,5.7548113994546e-06,6.224487697159677e-07,-3.444294318564519e-05,2
9.683190445935564e-06,1.151431276442344e-05,2.9534811564565994e-08,-2.5076970340710463e-06,1.984239437058805e-06,1.023436876290399e-07,-2.288750759638571e-05,7.286566833219532e-05,8.914547529054822e-06,-1.7180897182123502e-06,-4.916523534091597e-07,-2.4208218234577568e-05,2
5.783435549471596e-06,4.689538307387791e-06,9.740287523803123e-07,-2.0346859381361087e-06,8.823675714379156e-09,5.882250508782588e-07,-1.0720832868924028e-05,5.696743668302987e-05,5.703467320999154e-06,-9.941559344717543e-06,-6.717356667559861e-07,-1.521015102136086e-05,2
1.039695073872545e-06,-2.9597660159232008e-06,-2.3776975966397967e-07,-1.662495433499458e-06,-3.439878322209435e-07,1.1044031726569944e-06,-3.15704620057824e-06,3.347061771604718e-05,6.126510587078319e-06,-1.3816864676644579e-05,-8.558271808205426e-07,-8.363180734138633e-06,2
-4.563096868932808e-06,-7.735858113197278e-06,-1.8837994905144306e-06,-2.257228510286869e-07,-1.723325960411925e-06,-4.5736954419140405e-07,-1.105717880639362e-06,1.7262015425231986e-05,3.515683565998947e-06,-1.259531741262915e-05,-1.0702139805767793e-06,-2.225133854262771e-06,2
-1.0104494229260546e-05,-6.54071819943793e-06,-9.414982475998473e-07,7.026179149270285e-07,-2.7314508431098798e-06,-3.0643063182160496e-06,-1.3026545026286024e-07,6.81406768338817e-06,-4.9766926969475045e-06,-7.998570628631893e-06,-1.6828491834151819e-06,4.12670387971835e-06,2
-1.2273446150342455e-05,-2.2163503089266983e-06,1.9636035017652206e-06,7.875197100117062e-08,-2.5118554935663913e-06,-2.6574465312297963e-06,-9.852315273592347e-07,4.0946003497241454e-06,-1.1777929451775538e-05,-3.0532451242111743e-06,-2.4142612172601502e-06,9.642291535591141e-06,2
-9.046015972892108e-06,-7.41945980161029e-08,3.114658577408429e-06,-4.1134753256146175e-07,-2.133907815605298e-06,1.162299462711861e-06,-4.12718188189738e-06,1.2732744188259084e-05,-1.1034706684698533e-05,6.927359141614326e-07,-8.533774800833799e-07,1.1745704418770132e-05,2
-2.7206482306377e-06,-8.044953091822287e-07,1.66380277423703e-06,1.2829007522674582e-07,-8.981150011965939e-07,3.7222481170477774e-06,-3.5232033478241368e-06,2.870310952093315e-05,-6.084595102546345e-06,4.398829987541326e-06,1.9384555199497703e-06,7.470499537112695e-06,2
1.5390172123093203e-06,-2.3568553061702525e-06,8.766498799572362e-08,1.839610508799806e-06,7.659448247319865e-07,3.3925264847521357e-06,3.743036541992349e-06,3.9302032859695634e-05,-2.4016699775708706e-06,7.492085868660337e-06,2.845756468553122e-06,1.165269318582408e-06,2
1.562857559975711e-06,-2.978973612505672e-06,-8.259672928457581e-07,3.28574207595549e-06,7.820722323829306e-07,1.43159169003696e-06,1.0325986304288825e-05,3.297699942541161e-05,-7.146980992939138e-08,8.489603509279956e-06,1.207176014607642e-06,3.7469495464907764e-07,2
-1.0281359720029553e-06,-3.201612781750171e-06,-1.356375788539054e-06,3.092829416525959e-06,-5.9158625330850166e-08,-8.200208415996213e-07,1.0564361573361947e-05,1.4909044137266401e-05,1.7972774668331822e-06,8.716238322049533e-06,-7.113621106826772e-07,3.927434322178806e-06,2
-2.454031717943633e-06,-4.887399369660863e-06,-1.66786623824787e-06,1.1895094207627048e-06,3.3755358891302194e-07,-1.3425387623630687e-06,8.184264889417777e-06,3.3236458362139856e-06,2.630901146719438e-06,8.294027822824914e-06,-4.4348417022634127e-07,7.223227538630864e-06,2
1.0859588088236404e-06,-6.354653882839167e-06,-8.17886145344923e-07,-1.5708184191004232e-06,1.1089424706960283e-06,-1.2941100858978383e-06,6.866950203077639e-06,6.44345694782847e-06,3.2306291002034003e-06,5.12860031380209e-06,5.228630821047232e-07,9.717852668363469e-06,2
7.51383792980907e-06,-5.160065200774938e-06,1.8385258807910713e-06,-2.0132688051572988e-06,2.9716045898191767e-07,-1.6380464091810473e-06,6.462007882417573e-06,1.3788966068801955e-05,2.754394978567663e-06,1.551158278104563e-07,2.244371186808175e-07,1.1163941688301411e-05,2
1.1147174318416549e-05,-3.184318277098085e-06,2.7987600339704367e-06,-2.442330081198373e-07,-1.6240102278968306e-06,-7.597437509895333e-07,6.13145403001065e-06,1.1777816683281388e-05,6.656055032091081e-07,-2.613221674418705e-06,-6.282990669839688e-07,1.1358742067238026e-05,2
9.383876122633138e-06,-1.3661698287692842e-06,6.223575037014389e-07,-5.66533542103103e-07,-2.1199786128168887e-06,-3.3147277005121985e-07,3.872077204395426e-06,-4.776336194482794e-06,-8.016265857022617e-07,-1.5903069807146709e-06,-1.6631146313318997e-06,1.0562474304330977e-05,2
4.780610772669197e-06,1.1006933121219566e-06,-3.741060687657031e-07,-2.7167968394801187e-06,-4.93245098552964e-07,-1.1836158436992833e-06,-1.0444852809508363e-06,-3.0519268923662395e-05,-1.1345616627820631e-06,1.0874938048580551e-06,-2.526829186007461e-06,7.1068687255315255e-06,2
2.1491806591324234e-06,4.159243569216733e-06,1.4551080713882592e-06,-2.9461963525807056e-06,1.1729976801703393e-06,-1.0255293572303377e-06,-5.86618059293907e-06,-4.849621750281807e-05,-8.946598502905564e-07,3.7381902088525837e-06,-1.0941204856717883e-06,2.5377859722190813e-06,2
1.2730407876377863e-06,9.124560080725084e-06,3.073719320344471e-06,-9.663274717364259e-07,1.367586279240328e-06,-1.4734158308509994e-07,-7.565509017039977e-06,-4.6440032189020244e-05,-2.994656787883031e-07,5.137999737938728e-06,2.649796313603235e-06,6.657880616186511e-07,2
-2.919990537876519e-07,1.3982555037392516e-05,2.3458599953310667e-06,1.267225399115125e-06,3.35999495117226e-07,3.65365531060906e-07,-5.961911212270131e-06,-3.1278138636742434e-05,-6.859262250061912e-08,4.242087282965977e-06,4.4751084631123806e-06,-1.5890163741257681e-07,2
-2.8500555136616648e-06,1.477069206064808e-05,-7.775725526108095e-08,2.613147710294941e-06,2.6618603645138624e-07,5.126305809375445e-07,-3.498174207674184e-06,-1.6749735971727218e-05,-5.0313843772447775e-08,2.667158880050845e-06,2.659587109569115e-06,-2.1839563013331274e-06,2
-7.839461834880386e-06,1.1245933044722032e-05,-2.141476035482514e-06,2.0693635141199767e-06,1.7056754910492585e-06,-5.5675959865912635e-08,-2.6285760404699695e-06,-6.1076949591792195e-06,1.5808928031845378e-08,1.226340313611849e-06,1.0262063619392366e-07,-3.3421329409846917e-06,2
-1.2941863294122588e-05,2.902320559309348e-06,-4.086245325724383e-06,2.762471716726387e-07,1.4511470529804783e-06,-8.68567082717498e-07,-4.075473297116931e-06,6.684189095132355e-06,1.8802263754842784e-07,-2.202870456593592e-06,-1.56082161849665e-06,-2.3590511657083696e-06,2
-1.4023659361954352e-05,-7.738926671086751e-06,-6.75574960090193e-06,-7.505432168901265e-07,-6.807019460675802e-07,-1.2180952962473547e-06,-5.73246725731193e-06,2.0432257389722905e-05,8.144511100858628e-07,-7.2474633487581784e-06,-1.9962466766533283e-06,-2.072588132975593e-06,2
-1.2550898574498385e-05,-1.3128827627965246e-05,-6.795968489793563e-06,-1.5713998119794119e-06,-1.9401165347706707e-06,-1.5689860399968265e-06,-4.137456030891854e-06,2.513906025628118e-05,7.855137193677997e-07,-9.680843550390071e-06,-7.180056309595916e-07,-3.708448421610755e-06,2
-8.730166254078219e-06,-1.018457743173959e-05,-3.0327888233099245e-06,-2.6496417913516183e-06,-2.1286610389686728e-06,-1.1119782188070626e-06,-2.4589547579640435e-07,1.764579079848041e-05,-3.1791076948173236e-07,-7.983769995392652e-06,5.311427672886585e-07,-4.063358978366972e-06,2
-2.147602885579534e-06,-4.089787300193532e-06,3.6667724544865965e-07,-2.448503483708195e-06,-2.5239054153550613e-06,1.1892289181449316e-06,2.052373397711853e-06,5.1892594381995974e-06,-7.072838374090626e-07,-5.626173058436272e-06,-2.1625585744175993e-07,-4.842537979565577e-06,2
3.5707802295586715e-06,-1.463509241229369e-06,3.478083496561977e-07,-1.7365534081424023e-06,-2.773028347399071e-06,2.7586707082052666e-06,3.865991478698768e-06,-4.2866316893026235e-06,-4.0428457666814657e-07,-5.72638063042158e-06,-2.037096237697445e-06,-8.936532614277805e-06,2
5.983144170614671e-06,-1.716759556099272e-06,-1.7227100675186722e-06,-1.2072567015355036e-06,-1.3815664267860699e-06,2.1062149530779844e-06,8.424645787974363e-06,-9.69772719239751e-06,-1.1148765401689512e-06,-7.772703539525446e-06,-2.0935828844189577e-06,-1.107900882466137e-05,2
5.425659932291452e-06,-1.4682565163418398e-06,-8.679330199474479e-07,3.1954069894888485e-07,6.519334845225958e-07,1.3372992053822535e-06,1.400727383048415e-05,-1.1823392605649344e-05,-2.5686574058032422e-06,-1.1683266066579736e-05,6.568899502116057e-07,-9.011976603257335e-06,2
5.382983788003014e-06,-7.248210799902244e-07,3.5673969747317634e-06,1.5344461046819306e-06,2.219491037787619e-06,1.2040132794609897e-06,1.7128859975891767e-05,-9.577978599772509e-06,-2.7675059085741715e-06,-1.9553715641831436e-05,2.681685142265564e-06,-6.445959941574939e-06,2
8.767026275863732e-06,1.2044387440005787e-06,6.408827099220564e-06,2.379140302782515e-06,4.019866159863526e-06,1.4485433908570953e-06,1.4065315941758822e-05,-6.2444205637601494e-06,-6.733899079596169e-07,-2.2894633125587996e-05,1.942678051856712e-06,-4.290910855679191e-06,2
1.312469618175728e-05,2.8564312412230746e-06,5.690386526675022e-06,5.088689591388267e-06,5.081733293090024e-06,2.6214382101520627e-06,1.7385842623327192e-06,-5.70094561927837e-06,2.633059696839311e-06,-7.539707165721546e-06,1.3700685656429757e-06,-2.7099076525373983e-06,2
1.50903042955049e-05,8.372143344650227e-07,3.965848399326851e-06,7.155709223987512e-06,4.688297991945434e-06,3.888285774314536e-06,-1.3337678724793561e-05,-5.107944238591916e-06,4.377385037809095e-06,1.7616751542380434e-05,1.4586529856583495e-06,-1.7125538300716318e-06,2
1.4257668698319518e-05,-2.3684456214993397e-06,4.005686225123532e-06,5.88984448591673e-06,3.580314554700725e-06,2.935377988704714e-06,-2.0247889641510062e-05,-2.1903382598664105e-07,3.5674234076549587e-06,3.0444482077503596e-05,-1.192659161110856e-07,-3.1192669973416867e-07,2
1.2404918603447085e-05,-2.7077655589183276e-06,4.179531088163347e-06,3.1700388174579075e-06,1.8524034959351802e-06,-4.1066181720941823e-07,-1.7177577770283268e-05,5.252425395046142e-06,3.3041069828485707e-06,2.5972704786802854e-05,-2.8367873703605733e-06,1.7902907797916088e-06,2
8.384339486707053e-06,-9.329801101403058e-07,2.3386907610849633e-06,4.368631296864487e-07,-1.3083103362465159e-06,-4.334982156574402e-06,-9.990403425938237e-06,3.2741656286319325e-06,3.3445795755169415e-06,1.4446548457198747e-05,-4.2127672457289305e-06,6.343191974217889e-06,2
-2.0236035056637527e-06,4.5736101546676777e-07,1.3250795896379365e-06,-1.978056664843764e-06,-5.247655998588741e-06,-7.832085490497022e-06,-4.977942409644953e-06,-3.5419632705221697e-06,5.320626581415644e-07,6.226488740377329e-06,-3.0594977451129144e-06,1.2637392611015392e-05,2
-1.5962438999169814e-05,1.8800151377978194e-07,2.1398266186445904e-09,-4.553420334232109e-06,-6.800318054680892e-06,-9.625178513513955e-06,-2.93269554802878e-06,-3.2232765787640988e-06,-2.292542384216057e-06,2.460483682624195e-06,-5.937207853744196e-07,1.5299385050739354e-05,2
-2.2759107582118236e-05,-2.1653749748194126e-06,-5.081542866518245e-06,-7.521444290472534e-06,-5.73020682066507e-06,-8.274939751178384e-06,-2.511198002383384e-06,9.878892804236187e-06,-3.1405397803927524e-06,1.7544523733305519e-06,3.674521235800048e-07,1.4106576686036574e-05,2
-1.89439800283799e-05,-4.1444633908387145e-06,-8.258605445066323e-06,-8.86069720402196e-06,-4.203139068234272e-06,-3.95412635502197e-06,-3.812079681876572e-06,3.096734895838149e-05,-4.032095009324268e-06,5.5894977319520506e-06,-6.364905660540185e-07,1.3276381665808666e-05,2
-1.3193765777355273e-05,-2.314605886403077e-06,-4.626158124717607e-06,-7.532805129757631e-06,-2.487135522361231e-06,1.08645305573935e-06,-3.0729918676784894e-06,5.1068763847511284e-05,-3.719890716275263e-06,1.4198300141742999e-05,-3.307504195725896e-07,1.2920129525694966e-05,2
-8.880657374236399e-06,3.1976562593265123e-06,-1.0362990500505413e-06,-4.2731198318569325e-06,-6.501668695435775e-07,5.119761183190667e-06,-1.2665206754589613e-07,6.155435933888749e-05,-7.0908278483034e-07,3.2682559767280146e-05,1.592154396309383e-06,1.2114060890621497e-05,2
-2.949230264050445e-06,1.0523018595011789e-05,-3.822492092543124e-06,-7.803682277196731e-07,1.3663140802918276e-06,7.748499125961225e-06,-1.448214122531988e-06,5.394600194475792e-05,3.173677438401799e-06,5.3355415445687305e-05,2.3855880980776656e-06,8.825546200450892e-06,2
-1.7670170906465813e-06,1.3976862629376162e-05,-9.160686329778218e-06,1.2648250227589624e-06,2.4413106464944217e-06,6.735324685520453e-06,-5.910837268904009e-06,2.3884127632897263e-05,4.910067421545558e-06,4.6292348379607575e-05,2.4824164997279214e-06,7.1114545282046e-07,2
-7.804558876663112e-06,8.701466721587229e-06,-9.959955531005513e-06,2.3885295621520098e-06,1.7395748295056517e-06,3.4246226223947884e-06,-3.3845785395789952e-06,-1.9588501911983766e-05,3.956520287647264e-06,4.14265855010094e-06,2.2870262688918027e-06,-7.939295010078633e-06,2
-7.596578173912783e-06,1.2159611034011424e-06,-3.3352569706666412e-06,3.7351374826356413e-06,2.394237971037965e-06,1.7249306597636302e-06,1.1782691319729359e-05,-5.8999630444802214e-05,1.836769549479358e-06,-4.5339510123738174e-05,1.4337876585467884e-06,-1.536829946219495e-05,2
6.3473545362310975e-06,-1.3791427702734675e-06,5.384769246387856e-06,5.860055246577599e-06,4.643696570601199e-06,6.832396514663681e-07,3.001299550274646e-05,-8.111333745927296e-05,-1.3873857469986284e-06,-7.764497583142581e-05,1.4932156787757363e-06,-2.62477230606518e-05,2
2.1925034819637073e-05,-1.5791800375049756e-06,1.1215297259479273e-05,7.34496941954312e-06,4.179764982624015e-06,2.89449915937368e-07,3.5104607482784726e-05,-7.390354498662042e-05,-4.452976512647335e-06,-8.783273692100994e-05,2.564690400754159e-06,-3.714092645329944e-05,2
2.4584102094869604e-05,-3.1401443702531617e-06,1.583904262897199e-05,5.8108751627963525e-06,1.5273243045645693e-06,1.9222746353726652e-07,2.4102371697770484e-05,-3.258951485194768e-05,-5.542076599408139e-06,-7.794128813655134e-05,2.7038043732060487e-06,-3.34396747586598e-05,2
1.6290285124042633e-05,-5.865454098051846e-06,1.7336426167342235e-05,2.2882274173635544e-06,9.272803304518758e-07,-3.8058100370866897e-07,9.381883632947588e-06,1.6246119701183373e-05,-5.6239759843689176e-06,-4.972709415146296e-05,6.166761581164134e-07,-7.859200957447853e-06,2
7.767762116932336e-06,-6.977726147850397e-06,1.4426298596004937e-05,-9.242319526535436e-07,1.8678606943901458e-06,1.0838093727453587e-06,3.791351956981622e-06,3.38052761182761e-05,-5.4334557471528855e-06,-1.4163691070534026e-05,-2.010173886002794e-06,1.8711099883234104e-05,2
3.1360391106001422e-06,-4.111222086946818e-06,8.935607002488715e-06,-2.691815190536568e-06,9.760485957155695e-07,1.6859657596921314e-06,2.0522005174960666e-06,1.7143811978279673e-05,-3.722859095614334e-06,1.3672772345519114e-05,-3.4532318149238968e-06,2.0976266733453972e-05,2
1.4566818992498392e-06,1.1433381020001305e-06,-1.0049179894949557e-06,-2.249459917688263e-06,-1.6084305410969038e-06,3.0024201982742134e-07,-1.0795780352515048e-05,-1.0115734826521724e-05,-7.492003017756425e-08,3.2793181503534596e-05,-4.62447295303775e-06,8.975242768222901e-06,2
8.799929877853157e-07,4.844039017145035e-06,-1.1353487142624668e-05,3.1357906122302924e-07,-2.879055011655724e-06,9.895618793149888e-07,-2.4409728683569874e-05,-2.9687681616266124e-05,3.5911230404913676e-06,4.5063825183275536e-05,-4.20444140311762e-06,4.493777401704255e-06,2
-1.3162009774630859e-06,4.245562276324455e-06,-1.5546858370108787e-05,3.271990713771344e-06,-1.2435319046056776e-06,1.5291448121034632e-06,-1.7220011929712227e-05,-2.8282632441431746e-05,5.713418500636576e-06,4.28223459795817e-05,-1.955242788471103e-06,5.856898252953732e-06,2
-7.102371547218009e-06,-1.43209655598072e-06,-1.57028576781502e-05,3.3112433199812316e-06,7.802450154990678e-07,7.367815150438882e-07,-1.9848518279215957e-06,-4.958282536657328e-06,5.0441644227770086e-06,2.7820377251255064e-05,-7.227638868293466e-07,4.209033616400233e-06,2
-1.4336025124381003e-05,-9.097455890833e-06,-1.6566740931020704e-05,-2.2640901500076466e-07,2.6657478472568365e-07,-7.454537961096283e-07,-6.477052314646639e-06,1.9956492570054186e-05,1.1533589431877062e-06,1.638343009087401e-05,-5.308935202545647e-07,1.994279844728609e-06,2
-1.8351275932314582e-05,-1.2816640919641983e-05,-1.9338559963043806e-05,-4.033728099550988e-06,-1.3226251357691452e-06,-4.519758032875987e-06,-2.438438989844595e-05,2.5298894555489905e-05,-2.1118184715326906e-06,1.8432419475157706e-05,-1.3480570989317262e-06,1.9049919855201507e-06,2
-1.884239679498512e-05,-1.130712958936535e-05,-2.0072933935004992e-05,-5.726570259284591e-06,-3.1129261704756405e-06,-8.047133337272014e-06,-2.9479306341098244e-05,1.3034096828706065e-05,-2.360086871164006e-06,2.815165242576622e-05,-1.801692427313016e-06,-1.894251899927019e-07,2
-1.6878796521712896e-05,-8.060753657315857e-06,-1.19998261112321e-05,-5.866340000823707e-06,-5.444034918982089e-06,-9.444245331290613e-06,-1.9986376425277628e-05,1.8928409001752617e-06,-1.3469660330490325e-06,3.183333913022507e-05,1.0359487990142668e-06,-4.234987878318487e-06,2
-1.1709931362672104e-05,-4.354481200186041e-06,6.456635638851464e-06,-5.230666399269754e-06,-4.833726164943979e-06,-8.346425271737873e-06,-1.0266181965709683e-05,-1.8116756573824735e-06,8.974312761917804e-07,2.0779098510474567e-05,3.893965815469052e-06,-5.580100344450225e-06,2
-4.438850692679702e-06,5.515237873641887e-08,2.4043176068138056e-05,-2.796155807954181e-06,-1.1883435375752685e-06,-4.101901831506872e-06,-2.0937634919396865e-06,-5.9861318741271426e-06,4.219957480462481e-06,-1.520853434983049e-07,3.5243682449747834e-06,-3.196546781030401e-06,2
4.3078901473191085e-06,5.4073318121100555e-06,2.7802463949465972e-05,-1.0004700869199169e-07,6.919782245011865e-07,7.528206621593112e-07,8.046059561329529e-06,-1.0923687868361367e-05,7.399028280277303e-06,-1.714103936175036e-05,1.865009033448604e-06,1.8055670459216908e-06,2
1.2943682743769607e-05,1.164601138450193e-05,2.1327284479648352e-05,-9.731802070632234e-08,5.523584923852769e-07,5.0324114873062305e-06,1.6818983441951535e-05,-9.680223091422081e-06,9.121250514072202e-06,-2.2068719262113857e-05,8.001837687036859e-07,8.753554473461891e-06,2
1.7358497198255564e-05,1.6252729432986973e-05,1.4065538261891564e-05,-2.3507695598289336e-07,7.257735538457468e-07,7.574298031083671e-06,1.87411720368467e-05,4.215310157152978e-08,5.497432029001869e-06,-2.0436262956714314e-05,1.5411914477758607e-06,1.8112453243330863e-05,2
1.7084128286967503e-05,1.874420488675658e-05,8.038247874261691e-06,2.452207919783702e-06,1.7391142413170528e-06,6.3780406331198264e-06,1.5164355395107765e-05,1.492184909551663e-05,-2.627305381561568e-06,-1.8718814627711265e-05,2.5081481599306542e-06,2.5659620778768518e-05,2
1.5610281141854244e-05,1.83322559405545e-05,2.56640627130115e-06,5.983886041346049e-06,3.352121305093763e-06,4.557650444930772e-06,1.43575302985889e-05,2.9777610799952605e-05,-6.1679821137799664e-06,-1.5104085925420416e-05,1.4777978179795412e-06,1.9671982112201875e-05,2
1.5800535808935683e-05,1.0222446201793177e-05,-3.7827393202886584e-06,6.496547503402595e-06,4.906074265821389e-06,4.743111586435467e-06,1.7938845676262704e-05,3.5719856243373684e-05,-8.149393199774695e-07,-9.47300272440703e-06,3.663742240761473e-07,-1.8726471617113632e-06,2
1.61890616996223e-05,-1.9984557895654424e-06,-9.2512905762058e-06,3.521958267472944e-06,5.773190310212262e-06,4.55601788868482e-06,1.8725216743240707e-05,2.543266737192102e-05,5.534420460358108e-06,-5.4777756599759355e-06,-9.793870450603183e-08,-2.2538069325495773e-05,2
1.5241950381442301e-05,-7.882041148924635e-06,-9.160323660023077e-06,1.7852960561697668e-06,4.688125285907259e-06,1.8852200241497673e-06,1.4086860858123752e-05,7.570209677369529e-06,4.3237527249276375e-06,-4.7008280447023255e-06,-1.4626047735004165e-06,-2.7624420181243916e-05,2
1.559209888384047e-05,-6.22953568555481e-06,-5.0044327553255675e-06,2.191185702173898e-06,1.9107896732802295e-06,-1.6907945631354785e-06,7.5185823800093245e-06,-6.893580610665073e-08,-8.93504412964093e-07,-6.418935628022239e-06,-2.7588386875159807e-06,-2.0530335028032686e-05,2
1.6665479510244883e-05,-3.4481475252954836e-06,-1.1646076735937985e-06,7.33498403973724e-07,-2.606162284877263e-07,-2.4898359274185116e-06,8.58191197417443e-09,1.4468871220207354e-05,-4.559887575220012e-06,-7.707805747577227e-06,-1.977860168315692e-06,-1.1434254774683568e-05,2
1.5238983605244109e-05,-2.169588899988139e-06,2.4675658924821094e-06,-2.136255009389673e-06,-1.7566008647726008e-06,-1.4791632466695387e-06,-7.922364654624852e-06,4.620320339619586e-05,-8.716070521613344e-06,-6.305323068137282e-06,-1.2814630329704457e-06,-3.5736058479653826e-06,2
7.37727000719294e-06,-6.960313786568879e-07,4.28249765729188e-06,-3.215889005342334e-06,-3.5698250679228997e-06,-2.9514674423543214e-06,-1.263953760043327e-05,6.604714241367336e-05,-1.2615207626137942e-05,-2.3611088841395882e-06,-3.0362219880083593e-06,2.5650629256159135e-06,2
-1.2502955798635513e-05,-1.3496402279536715e-06,-3.559946071457502e-10,-2.9553082204080396e-06,-6.156718548590025e-06,-5.057986873161485e-06,-1.3567680159849778e-05,5.426388206574945e-05,-1.218585022343047e-05,2.0007144519354024e-06,-2.770237109755228e-06,4.6573789935455875e-06,2
-3.9952799638379125e-05,-7.744875744339585e-06,-6.854673098529849e-06,-3.7334330707934026e-06,-8.81703882219677e-06,-4.544797587024927e-06,-1.3175119240996422e-05,2.1644932111618018e-05,-6.93781651806156e-06,3.6086824117693834e-06,3.931317655693379e-07,3.400469045200161e-06,2
-6.92676175407324e-05,-1.7419263050803037e-05,-1.0764525803496755e-05,-4.278077700021048e-06,-8.417806940800256e-06,-2.893677683159173e-06,-1.2521979321568746e-05,-2.5845927129467397e-05,-1.772219130948254e-06,2.880361857241404e-06,7.644907347933896e-07,2.3139434567861466e-06,2
-0.00010842375166053923,-2.6995221642052305e-05,-1.288884839851352e-05,-3.185320739433394e-06,-4.7345084695929615e-06,-7.222444645489004e-07,-1.0483219766378311e-05,-8.988624401246949e-05,-1.694161493515675e-06,2.020244156463374e-06,-9.476612905081618e-07,2.1178793446087297e-06,2
-0.0001354475387373935,-2.96979549492277e-05,-1.2008170287855391e-05,-1.8579816946480875e-06,-5.377149178724715e-07,1.0781321190019766e-06,-4.635873761682912e-06,-0.00015310069317106046,-1.7023846180707917e-06,2.3222028105083928e-06,-8.405792587409933e-07,2.6706092446424427e-06,2
-7.943685863535694e-05,-1.3482038533289829e-05,-5.339252410105654e-06,8.199665573668778e-07,4.2863535961114305e-06,2.0667340946046077e-06,4.291681456149457e-06,-0.0001832829520039101,1.3292071783845732e-06,6.293771341723823e-06,1.0733861528185137e-06,3.039009170448271e-06,2
6.42791838497446e-05,1.6496182152904616e-05,2.8907401562324865e-06,4.0745505958441915e-06,9.126330424551644e-06,5.27928433769947e-06,1.149038001953405e-05,-0.00014698879528586212,3.9024582856932275e-06,1.2348489350354171e-05,2.9618613966132786e-06,1.5424313787158838e-06,2
0.0001727418403940561,3.346436999036897e-05,6.601110370144445e-06,4.644981547633698e-06,9.739372967974568e-06,7.941612839485767e-06,9.626832776581092e-06,-4.693441391426175e-05,8.04825162242045e-06,1.4280376644262656e-05,3.062961214573757e-06,1.355070933854647e-06,2
0.00015644206438356734,2.5850012191909766e-05,5.8001999532655475e-06,3.83440422900497e-06,5.645349476862834e-06,5.1462379472804124e-06,-4.218979911011008e-06,5.2255935465376264e-05,1.143738109896926e-05,1.0217904597417017e-05,2.1319005799788986e-06,3.333708714194803e-06,2
7.19372560571785e-05,1.036225800419157e-05,4.0874161356368195e-06,2.528777094981268e-06,2.4885785648154055e-06,2.100023394243216e-07,-1.8390091377234574e-05,9.162283416715683e-05,9.445694133111618e-06,4.088429584327044e-06,1.8145459745967498e-06,3.4228433445187736e-06,2
9.652011137356186e-06,1.4705080842872645e-06,1.811230034683171e-06,9.870344824554246e-07,2.2763381478664805e-06,-1.707921352028239e-06,-2.0354863162139673e-05,8.110125750324322e-05,6.341884044954283e-06,1.6082511754101174e-06,1.4211665769891432e-06,1.8505025935086415e-06,2
-9.4158646781497e-06,7.847074753151557e-08,-1.2142797449753893e-06,1.4906733768870603e-06,2.153970721401055e-06,1.514544947271007e-07,-1.3815741224386821e-05,5.9468381306442896e-05,5.253922455681935e-06,5.482341816631787e-06,3.973216908236633e-07,1.6479682122661244e-07,2
-1.1337815598062506e-05,3.1026120302401774e-06,-1.8239083014443674e-06,1.7639436870916383e-06,1.7917971370599818e-06,8.056649133020931e-07,-6.5467857541313786e-06,4.313635749096181e-05,6.193313927916687e-06,1.1356389167782816e-05,-2.8441821274594473e-08,-1.7519063391585221e-06,2
-1.826109560389759e-05,5.140087842456928e-06,3.6019572777202545e-06,-4.259557678552886e-07,3.0803324570921916e-07,-2.4672095728893916e-06,-7.268501594679496e-07,3.1206687165381175e-05,6.2973000878073095e-06,1.0986109470760728e-05,-8.396484096912626e-08,-3.5823056467602586e-06,2
-2.9737923082266054e-05,3.7570706013086656e-06,1.4117294916361755e-05,-1.8773059228930574e-06,-3.454240790532575e-06,-5.105806945600972e-06,4.349048581503099e-06,2.4301647888148008e-05,2.675987096990549e-07,2.2327224593059585e-06,-1.2907087549169299e-06,-4.230420902314838e-06,2
-3.6733905760893706e-05,1.421684945171792e-07,1.955667935272824e-05,-1.6895272635946368e-06,-6.681335810764621e-06,-6.174100867605601e-06,1.3560882992060709e-05,2.7506967760168335e-05,-7.851169327773492e-06,-8.016876880597909e-06,-2.5627157188415117e-06,-2.340786327285138e-06,2
-3.324367920082361e-05,-4.303978754453087e-06,1.1870782983242629e-05,-1.6836051862488035e-06,-7.849848505264532e-06,-7.031822455629993e-06,2.601765135976832e-05,4.076316764793915e-05,-1.0039717477028627e-05,-1.524931148532422e-05,-2.2999197019178047e-06,-1.88857249331728e-07,2
-2.045131449551888e-05,-6.328323528136825e-06,-1.3398684640487493e-06,-2.5872002348939393e-06,-7.340212815346834e-06,-6.080810818842313e-06,3.190251646830398e-05,5.355504424067719e-05,-7.270698232014757e-06,-1.9949640689019956e-05,-1.228959061357079e-06,3.103672321827018e-07,2
-8.655807912291752e-06,-5.301907784043645e-06,-8.250594122534477e-06,-4.406030658960537e-06,-4.3550791481835565e-06,-2.8843627036254718e-06,2.7742384371889656e-05,5.4682285006880315e-05,-2.593452581137499e-06,-2.020138110272592e-05,2.406982047582091e-07,1.9173604165929405e-06,2
-4.407212112673407e-06,-3.4367437085927467e-06,-7.594991796536285e-06,-5.069818665227328e-06,-5.178441221647949e-08,9.401535452720607e-07,1.8810429676427018e-05,3.997790838974088e-05,2.217382855605158e-06,-1.5244765301425647e-05,1.822828204766542e-06,4.956776954690881e-06,2
-4.425624087163783e-06,-8.90358377427275e-07,-5.491705512229662e-06,-3.2013466681560646e-06,2.306181985925625e-06,2.720293405981261e-06,1.2653526131125741e-05,1.2925021785199622e-05,3.462660514949585e-06,-8.983280399876309e-06,1.662765349421736e-06,5.461322415501145e-06,2
-3.7873666072209846e-06,2.265693436271036e-06,-4.801930046758407e-06,-8.750920043462042e-07,2.5354819756217824e-06,3.041048530866468e-06,8.470881976851768e-06,-1.6668359966716073e-05,2.7816471369161056e-06,-5.721160502704472e-06,-3.945556293394935e-07,4.4345315388869836e-07,2
-1.216959622036451e-06,4.014925084272091e-06,-3.770902055958003e-06,5.533257525330794e-07,2.500237243057277e-06,4.294103870904573e-06,-4.5784767004877055e-06,-4.3715370931428155e-05,8.433705172210558e-07,-5.815625188778562e-06,-2.5073117363789756e-06,-6.797758964908205e-06,2
1.01094070251408e-06,2.8581105981868706e-06,-2.0828419948889906e-06,2.3433379036110805e-06,1.4691307143516939e-06,5.702286247134784e-06,-2.336290472462123e-05,-6.72602841474415e-05,-6.06539865282235e-06,-8.756345689395236e-06,-4.581391260414409e-06,-7.949582337418272e-06,2
2.4898476743242487e-06,1.175023164567737e-06,-9.573208766256889e-07,4.19759277458714e-06,-7.889199033490715e-07,5.947862810410711e-06,-3.147163090993742e-05,-7.701826486515542e-05,-1.0218059621269457e-05,-1.3603954621004687e-05,-5.7443691300596074e-06,-3.008366524934395e-06,2
5.439190362550247e-06,6.255689439856657e-07,-1.4761145271290751e-06,4.197384781102858e-06,-1.8725777387223207e-06,4.628776583898191e-06,-2.71639791035873e-05,-6.450469794287105e-05,-5.116500541725041e-06,-9.350471544381784e-06,-3.058032562579564e-06,-3.5996979278398876e-07,2
9.513372037036391e-06,-1.6817028473175749e-06,-3.397395724358782e-06,3.689848276286011e-06,2.1213507952393338e-07,2.8312485583019074e-06,-2.119865588864376e-05,-3.649418120031698e-05,-6.373814805993557e-07,9.429279030505492e-06,2.167255715686067e-06,-3.6031507691428405e-07,2
1.2631775933682605e-05,-6.003131273258735e-06,-4.093621514236057e-06,3.749207943471361e-06,4.175319506395387e-06,2.1978727372547386e-06,-1.7742742395224693e-05,-7.5367452399091786e-06,-2.7051762871859708e-06,2.583175141377053e-05,5.22722122569845e-06,3.3421282788407548e-06,2
1.3569365125799697e-05,-9.46161397548864e-06,-3.3522890778447664e-06,1.7903648956147232e-06,5.559738919687934e-06,1.3338607367289654e-06,-1.1619878290731012e-05,8.306766523002782e-06,-3.8064633705762376e-06,2.6122802203484746e-05,4.649158502852198e-06,9.588758230078333e-06,2
1.2386791335527753e-05,-1.1915159013770088e-05,-3.9862018523703105e-06,-1.5864704322219606e-06,3.4716715256466983e-06,-1.4949753220778999e-06,-5.937512447371952e-07,7.362556113465001e-06,1.2591408627847779e-06,1.47622413148124e-05,2.493404830244579e-06,1.170953236009078e-05,2
9.25136583196008e-06,-1.3751304184122488e-05,-4.749936745681037e-06,-2.6583348450540247e-06,1.3182973668518696e-06,-3.930882448951478e-06,6.930620920477944e-06,-2.771538146943912e-06,6.5230716894593455e-06,4.833661120680783e-06,2.043149827471595e-06,1.1275187715275329e-05,2
5.113908442441618e-06,-1.4111829728700525e-05,-1.8478239749421002e-06,-1.4732525349800274e-06,4.536974923063135e-07,-3.8792394229069175e-06,7.979535788852054e-06,-1.0150793070372367e-05,6.688060289758489e-06,1.155943957358085e-05,3.5137839264955584e-06,1.5551129183078894e-05,2
4.478688741288809e-06,-1.4126853251424678e-05,3.2063248598218708e-06,-9.101126890874218e-07,-4.3320429539462005e-07,-3.4388575158403426e-06,1.022696683906504e-05,-1.7003245729220219e-06,4.690022959564831e-06,3.4265693577773405e-05,3.1276081414623255e-06,2.052532578234221e-05,2
5.861137149993585e-06,-1.3419324953661821e-05,6.2374485118390404e-06,-2.1220759608230873e-06,-2.7537374643615797e-06,-4.137811885267681e-06,1.2634790445116128e-05,1.7173260945093688e-05,2.4830731553666074e-06,5.021120900632587e-05,7.798090399691228e-07,1.3323698579801425e-05,2
-1.118519166549864e-06,-6.538728925471585e-06,5.3692589721166985e-06,-3.0230502804741927e-06,-4.447354752763882e-06,-4.574322301525309e-06,1.0463479813453283e-05,2.4380253153949437e-05,-1.3066390886452898e-06,4.1414731459634744e-05,-9.593058252025338e-07,-6.22447989293363e-06,2
-1.5712385348992937e-05,7.349139750370951e-06,1.5701207158878475e-06,-1.0957192728757365e-06,-3.3686151758953294e-06,-3.3653878194803113e-06,5.861634240084751e-06,1.589121150421224e-05,-5.796033076953382e-06,1.1097383188428723e-05,-2.957278005850558e-06,-2.3314128755814266e-05,2
-2.553590949353229e-05,1.9853971419889137e-05,-8.221391993472294e-07,2.2372129725208782e-06,-2.271701378866963e-06,-1.620431966681318e-06,-7.568665413902996e-07,2.183855546648334e-06,-5.8604703066826295e-06,-2.4368333580535574e-05,-4.304205808672389e-06,-3.202446889703839e-05,2
-2.7267551459363608e-05,2.5867488935881997e-05,2.1015762941499156e-07,4.265770901712069e-06,-1.124376468570679e-06,-1.8329483541145286e-07,-5.585986351671801e-06,-1.1437760824552938e-05,6.489529716031036e-07,-4.8496480149370294e-05,-2.9754350224738164e-06,-3.892565358865987e-05,2
-2.408784670512874e-05,3.19794047681142e-05,4.543702500137318e-06,4.9126736133988385e-06,2.2304796862300333e-06,1.9641892806951445e-06,-3.832125246695459e-06,-2.1687361201184218e-05,7.92228011649754e-06,-5.719730527863964e-05,-1.3547958971253143e-06,-4.521341788852282e-05,2
-1.1824309864751686e-05,4.6819729728808304e-05,1.1368464453918652e-05,3.8075173259275193e-06,4.338126533625635e-06,3.1288514308938396e-06,-2.6024844821242537e-06,-2.813274851779118e-05,1.0217818212151299e-05,-5.583695108594083e-05,-1.7110007636766217e-07,-4.7995740801556156e-05,2
1.4050552259235483e-05,6.62824777749723e-05,1.2700149176738738e-05,2.0934011115976566e-07,2.3379791886279006e-06,1.961556013030188e-06,-7.101691163556686e-06,-2.787351301782653e-05,6.346619105704888e-06,-4.7891944716967753e-05,9.241321949030955e-07,-3.812345604425489e-05,2
4.223707690038443e-05,6.485417320580147e-05,5.876226951178136e-06,-4.2479201147102764e-06,-1.512863012209118e-06,6.53790266255323e-08,-9.791384667795797e-06,-1.2150572627129984e-05,1.2822221758715478e-06,-3.4118028934949395e-05,3.0903885168831796e-07,-4.314704836210455e-06,2
5.0426441629481846e-05,1.3358991000854516e-05,1.094521577569928e-06,-6.1501971791625075e-06,-2.5568161861397476e-06,-1.2974010563194614e-07,-2.558710652127982e-06,1.9490716784609865e-05,2.31196043387545e-07,-1.4083804776924455e-05,2.086710702180356e-07,3.8836076274428334e-05,2
3.0809667912663364e-05,-6.513004832509685e-05,1.1581453037034266e-06,-3.1474980180704657e-06,9.71897829261326e-07,3.922880912719257e-06,1.1486494971920918e-05,5.540358412971786e-05,-5.522079227316642e-07,9.299621590849912e-06,1.2931219471144215e-06,6.347136754173087e-05,2
-5.315705003892189e-06,-0.00010084539398324009,-2.2098243274401186e-06,1.0107654098457149e-06,3.796650088807055e-06,7.763330576575396e-06,2.0321570676882358e-05,7.936986503666822e-05,-3.213748419786494e-06,2.531591084079697e-05,3.7758335783728823e-07,6.227224164230931e-05,2
-4.326534142134195e-05,-7.374278579912827e-05,-1.0254605575166497e-05,1.0123635246625672e-06,2.3209994604225776e-06,5.3876218933870504e-06,1.9632237920101834e-05,8.311007157395368e-05,-3.952075905373778e-06,2.6782175329786678e-05,-9.605839516490965e-07,4.895017912074567e-05,2
-6.247180422246463e-05,-2.9510543017077532e-05,-1.4121420648672147e-05,-1.251526848345809e-06,-4.6008164172108947e-07,-5.929508149976838e-08,1.5603074632250764e-05,7.344594421840726e-05,-3.01999894724295e-06,2.4702660335609596e-05,-9.187947764630833e-07,3.9976051489517895e-05,2
-4.751952435480282e-05,-3.0834485867092476e-06,-1.153439205530377e-05,-3.018777534275844e-06,-3.180908406758754e-06,-4.7416886109200385e-06,1.0995017252851658e-05,5.6225045901291026e-05,-3.7097784594424523e-06,2.8761705959425535e-05,-1.3494491866254843e-06,3.375424546591532e-05,2
-8.65916921071915e-06,3.715441097147145e-06,-8.61596419690374e-06,-3.992296174280385e-06,-6.13239057005325e-06,-6.978588386808426e-06,7.106257880867581e-06,3.114326279595174e-05,-5.90581397674467e-06,2.7063979852176673e-05,-1.5409347945558558e-06,2.0954866377166213e-05,2
3.5969527330617955e-05,-4.476504282355693e-07,-3.875241149478894e-06,-1.8533259274450123e-06,-5.597659313912721e-06,-4.13036818265947e-06,8.763371321185565e-06,6.238467320722296e-06,-5.975507718937261e-06,1.8599686616727195e-05,1.433088969144728e-07,4.105929893040411e-06,2
6.488668578780442e-05,-8.121526907563661e-06,4.1323797965327325e-06,2.6940865667280726e-06,-9.649336172177348e-08,1.4750245769605646e-06,1.418127088208804e-05,-1.551001099898939e-05,-2.607718352246056e-06,1.7036183757582353e-05,1.7856659284014106e-06,-1.352987981334912e-05,2
5.407453732975231e-05,-1.2150855273505246e-05,6.608462660327796e-06,5.170952980511657e-06,4.708535731416671e-06,4.152066455525098e-06,1.2123321628362588e-05,-5.0791909418109566e-05,1.03028346415087e-06,1.512859372845466e-05,1.8686281541755777e-06,-3.090540751414632e-05,2
1.4708599566985953e-05,-8.410384276719223e-07,1.7466073687589288e-06,3.819353773217687e-06,5.610936071456435e-06,2.425344415263225e-06,-5.95482200402257e-06,-0.0001036103062156462,1.5646669488262548e-06,4.9763478442306314e-06,1.5952061844944995e-06,-4.2453516892510126e-05,2
-1.705051520052367e-05,2.6460733405491368e-05,-2.341624783146847e-06,5.279374779659651e-07,3.884958124100998e-06,-7.624269663862363e-07,-3.340134996191953e-05,-0.000144846602986745,-7.028942174046064e-07,-5.490672074583408e-06,1.604928024160707e-06,-4.508503014410908e-05,2
-2.7699371360644686e-05,4.699485094814842e-05,-2.3943639946776297e-06,-1.4215380108371539e-06,-2.951115517252667e-07,-2.075551566707605e-06,-5.33213785251153e-05,-0.0001446956600908431,-1.974494270973138e-06,-1.2630570205484762e-05,1.829358939976277e-06,-4.364783941473949e-05,2
-2.5658120384682648e-05,4.0831578071163856e-05,-7.884493255925214e-07,-5.725917253978539e-07,-3.7221507598717772e-06,-1.9650280998414813e-06,-5.957681691318226e-05,-0.0001019033393540886,2.0036625875864042e-07,-1.3963350001054625e-05,1.4761408153375332e-06,-4.298434769168817e-05,2
-1.9266937373382075e-05,1.7807543394379495e-05,4.4645246614629607e-07,1.642526920045558e-06,-2.882513137175745e-06,-2.9469048793898576e-06,-5.308058141895274e-05,-4.042430026663697e-05,4.316106746066923e-06,-1.0890307696429007e-05,-2.4322501404465913e-07,-4.065658856453327e-05,2
-1.1048735175035236e-05,1.3240734968771456e-06,1.952468517694285e-06,2.6584195991774126e-06,-6.66301693432747e-07,-3.1860687006843715e-06,-2.7928590428974562e-05,1.1831500168296934e-05,6.501955606531747e-06,-1.1933167842602137e-05,-2.157454808565211e-06,-3.525237714059366e-05,2
-3.3299752329770883e-06,-2.684677730838131e-06,3.627155111982922e-06,1.3612834123047717e-06,-2.9718509943036252e-08,-1.4448713317612086e-06,7.314520296151086e-06,4.413442089940768e-05,4.365056410076712e-06,-1.546032124657565e-05,-3.6200689295579064e-06,-2.788684092867574e-05,2
8.388336669736748e-08,-2.905735134871445e-06,3.2759322801372223e-06,-2.427413034854519e-07,-7.980811833587541e-07,-1.2528655828210421e-06,2.9538611868955477e-05,6.060899544538373e-05,9.29919722199877e-07,-1.3181715434796337e-05,-4.171202288910456e-06,-1.5660171919052978e-05,2
4.7276390744805204e-07,-2.815257755358551e-06,1.783862954574512e-06,-8.445193553918577e-07,-1.7924652750349764e-06,-1.4091063317657258e-06,3.3840763619503e-05,6.77217502283762e-05,4.6902629062955613e-07,-5.567574436123957e-06,-2.810676497665109e-06,2.4139953790356863e-06,2
1.6488683448557385e-06,-1.0945914319764905e-06,1.582229601830005e-06,-2.045206258587822e-06,-5.01368338149567e-07,7.167897662286701e-07,2.997967208056059e-05,7.204140403088902e-05,2.0070227209292238e-06,-9.44869545655591e-07,-1.512424374314634e-07,2.4861781639691097e-05,2
3.029355619988026e-06,6.820964392329225e-07,2.8192679349054784e-06,-3.103616457586031e-06,2.2234511895210695e-06,2.2130945235559473e-06,2.652979016734102e-05,7.320035832125535e-05,2.0955380036043775e-06,-2.5640369208121755e-06,2.145847867132243e-06,5.526382703381236e-05,2
1.8653320891567803e-06,-9.222731904732229e-09,4.784558007660714e-06,-8.99801850269131e-07,2.716317743055644e-06,2.8738366419825694e-06,2.7827136933604643e-05,6.416215494945591e-05,4.4548522839338603e-07,-4.792543889228071e-06,2.005746474237721e-06,8.859534245808763e-05,2
-5.965285608457459e-07,-4.6021723764827735e-06,6.477514405988718e-06,2.5445647509167836e-06,1.8577657751783837e-06,4.381097758061219e-06,2.9347833307508604e-05,4.798367452401393e-05,-6.473192280530166e-07,-4.708055641164215e-06,4.547229600024337e-07,0.00010032058330416586,2
2.2722213316314093e-08,-1.1586962442170696e-05,5.256998714573279e-06,2.4538772536550613e-06,2.547184342214906e-06,5.0082381067891795e-06,2.7836770348973104e-05,3.4645248514131424e-05,-4.706931595506602e-07,-2.9308577072611404e-06,1.2311893993767649e-06,8.220529066079947e-05,2
5.731369487089028e-06,-1.4933535217953833e-05,-3.0129127972253626e-07,-4.211656240054403e-07,4.157736624079608e-06,3.753707035307646e-06,2.4518220414122024e-05,2.4305479498393036e-05,5.866470195618196e-07,2.267488108732959e-06,3.1546516646758836e-06,5.5886701800731034e-05,2
1.5752643939327548e-05,-1.2248134275064504e-05,-5.4011029617108545e-06,-1.9788377174618175e-06,3.8394841213729526e-06,2.7317313873168556e-06,1.4677254156745348e-05,1.0235288946481553e-05,1.7422895552277586e-06,9.941925191349263e-06,2.909619699131716e-06,2.957891573346903e-05,2
2.42608064032864e-05,-8.305482706242544e-06,-5.281261732737406e-06,-7.153473456152942e-07,8.53324586389682e-07,3.0589745800748705e-06,-3.820101558928277e-06,-8.692213360691674e-06,-2.705254809721144e-07,1.3257253002065152e-05,1.4735646032209875e-06,-1.483741822921993e-06,2
2.2900542494658673e-05,-6.267645845867764e-06,-1.8853341666392876e-06,8.834699807211971e-07,-1.798048950819181e-06,1.374585619034799e-06,-2.3388546806156954e-05,-2.7801859572027685e-05,-4.576707869688928e-06,8.901955555942354e-06,7.47903212901755e-07,-2.8668989157489645e-05,2
1.2533746110970218e-05,-4.631899499841109e-06,8.215334899094451e-07,7.449972507839528e-07,-2.309127713601754e-06,-2.628690723643463e-06,-3.4524545867467374e-05,-4.278812751989279e-05,-6.983734066439162e-06,4.0043253031601595e-06,1.1413069997333011e-07,-4.7612290359148696e-05,2
2.6089615371962567e-06,-9.826354981988117e-07,1.0455970682387612e-06,-3.3522809346125405e-07,-2.9176580396429433e-06,-5.181622429890301e-06,-3.308834578716967e-05,-4.738670333356127e-05,-8.068155011732831e-06,4.314749986789075e-06,-1.8649849106567106e-06,-6.366566788879669e-05,2
-4.4842081268708297e-07,3.728575274893276e-06,-1.0930012237959673e-07,-1.8169193114596583e-06,-3.867172184532796e-06,-6.145559433608018e-06,-2.5831370971681373e-05,-4.091518694610142e-05,-5.9570006565346935e-06,6.973254394994744e-06,-3.945587774328646e-06,-7.643186111777451e-05,2
1.0708149251394951e-06,5.969642477799059e-06,-1.7081904289916425e-06,-1.8544788756059097e-06,-3.283512870548082e-06,-6.071301195513916e-06,-2.1817453001962586e-05,-3.47967033939126e-05,-1.3232849003291358e-07,8.742202712382003e-06,-3.5348431168297634e-06,-8.086826520070348e-05,2
4.126332726584665e-06,7.133830525996393e-06,-4.000751427543845e-06,-2.34922620468612e-07,-3.6114460997304942e-06,-5.698059962494215e-06,-1.9106807977870576e-05,-3.3536155519480864e-05,2.940736800067224e-06,7.25117913421694e-06,-1.3935502542331673e-06,-7.15749177881401e-05,2
1.1271795425732972e-05,1.082108565384605e-05,-5.5400218616350095e-06,-4.5096304624893006e-07,-5.1543053261724965e-06,-5.071407157184574e-06,-1.2101001367283948e-05,-3.11936494100464e-05,3.4902015011482192e-06,2.5615949077270673e-06,-8.660663243033558e-08,-5.0352136090529696e-05,2
1.6160210744229055e-05,1.4563265949182716e-05,-4.923617657814118e-06,-6.094131139900524e-07,-3.797364453886524e-06,-1.8198251931328092e-06,-2.7006502185133438e-06,-2.25395745084573e-05,5.95006958379963e-06,-7.448207484066888e-07,-7.783573796016442e-07,-3.0005363697301132e-05,2
-4.845508042410052e-06,1.3595168349594242e-05,-2.3687411425702868e-06,2.277034867577712e-06,-1.4622605218309573e-07,3.004953654689424e-06,4.365030764448905e-06,-7.195179191027269e-06,8.833940759084701e-06,-3.5427577372511424e-06,-1.447640365710125e-06,-1.9614545057495976e-05,2
-6.0872223996943955e-05,5.812140940618527e-06,5.691165184229576e-08,4.340079591438442e-06,3.156016968891082e-06,6.73040619960572e-06,8.166269815445568e-06,4.4107720058357235e-06,6.73588750421921e-06,-8.64118357902079e-06,1.046345258256066e-06,-1.366414948380866e-05,2
-0.0001192527491790302,-8.297547100982982e-06,-2.1176712142593632e-07,2.6984507745055576e-06,3.824507109469034e-06,6.285612104270519e-06,9.20827531635514e-06,2.5115960988627774e-06,-1.8434778650064856e-06,-1.1396034135808135e-05,3.2476524653994282e-06,7.604192285750122e-07,2
-0.0001444728203433672,-2.5318391436963874e-05,-3.538786399515744e-06,-1.309995619680323e-06,9.271864531347723e-07,1.116505992996978e-06,7.849581106733188e-06,-1.1068904264586812e-05,-8.223877755694042e-06,-1.0508308049965292e-05,1.0344725916805471e-06,2.9172743895711115e-05,2
-0.00011425056495595187,-3.426411721845312e-05,-6.869767058695297e-06,-5.0383103326337936e-06,-2.3758513583236248e-07,-1.5180416028297372e-06,8.35319160223205e-06,-1.9892079894465794e-05,-6.1490643054171685e-06,-8.139653321230629e-06,-1.0361451285116226e-06,6.329750601681162e-05,2
-8.613438683119758e-08,-1.8160492191102185e-05,-4.649832077143485e-06,-4.417536062363515e-06,4.116227081597484e-06,1.4532408951450837e-06,1.6412193784968837e-05,5.212057491045507e-07,-8.971768996891481e-08,-2.992256487742211e-06,2.2180173022083898e-07,9.153168776090685e-05,2
0.00014949008511458935,1.6072740940583544e-05,3.143019943769804e-06,8.720037012329506e-07,8.812477610149502e-06,4.3820957826633395e-06,2.6843511053692295e-05,3.966912844173504e-05,4.401843711468971e-06,2.251974526210664e-06,2.192349932655938e-06,0.00010457950786008327,2
0.0002010618321738128,3.298544371570088e-05,9.88101732506128e-06,5.004619563249776e-06,7.330053284686644e-06,3.836499349729112e-06,2.7921129579074148e-05,5.70824791702728e-05,4.394870674905081e-06,3.0671803443699856e-06,3.2630187596100805e-06,9.114270432779299e-05,2
0.0001229146948651395,2.188431353193835e-05,1.197737453231021e-05,4.355097776801459e-06,1.9095070995672356e-06,2.8259213712629993e-07,1.9884867172934454e-05,4.646157958216187e-05,6.279031324581441e-07,-4.968239888302145e-07,2.1810403661336974e-06,5.1451770655226916e-05,2
2.2249252959332216e-05,8.185943125850214e-06,1.0245162869461266e-05,7.181174255879161e-07,-2.400351861257525e-06,-3.9522383862442e-06,8.735654094243985e-06,3.183402681214071e-05,-2.7213768651111965e-06,-3.2845666601556445e-06,-9.685313780282191e-07,7.48826568990457e-06,2
-2.080933798382663e-05,5.515042279073079e-06,6.262140064342552e-06,-1.941390675048574e-06,-5.397755203653372e-06,-5.098490553202063e-06,-4.322096386242834e-06,2.3288708071397584e-05,-3.128077805441832e-06,-1.2947808162830955e-06,-3.1102547267004683e-06,-2.1500052749515538e-05,2
-1.8270183322510122e-05,2.6034917750805114e-06,1.2493398199699293e-06,-1.4971591770117433e-06,-5.335336050912455e-06,-2.2919559437111885e-06,-1.493252868642258e-05,1.8404695365185587e-05,-1.597549763790475e-06,5.094474835828932e-07,-2.741670866429528e-06,-3.5830635086288965e-05,2
-8.213395983907718e-06,-8.09128685949808e-06,-3.5210906618254865e-06,-7.145699097279618e-07,-2.4860826064617427e-06,9.027065540808084e-07,-1.8159146679626615e-05,1.8318770114856227e-05,-4.906156883948344e-07,9.898902879284496e-07,-8.792846777459873e-07,-4.1052099459650984e-05,2
-6.0463599043403536e-06,-1.62172337133679e-05,-4.984942320019412e-06,-1.3918631935012726e-06,-1.288576859011112e-06,1.7038226836505237e-06,-1.5347644481686338e-05,2.7292893412042848e-05,-9.49804151117742e-08,5.382755144196276e-06,1.0169031180639578e-06,-3.974968723226245e-05,2
-9.417458681946694e-06,-1.247277029808007e-05,-1.4948989071466983e-06,-1.9478479789655045e-06,-1.3891685936040008e-06,4.26751817948532e-07,-1.1647859686607647e-05,4.0335213379603475e-05,3.897887420660768e-07,1.0563932683767064e-05,1.2954410637946157e-06,-3.433505217306235e-05,2
-1.3317492888397885e-05,-3.646654261287566e-06,3.5131736774169645e-06,-1.983094119825083e-06,-1.4449955818925818e-06,-1.3605440348230272e-06,-1.1316817982813274e-05,3.899956216402782e-05,1.027890695571128e-06,1.0281756674224948e-05,-1.3926015660463597e-07,-2.841338164162961e-05,2
-1.4542112280689028e-05,1.424529338752676e-06,5.840491220929035e-06,-1.4665741568108891e-06,-6.872824637797792e-07,-1.3914191899224218e-06,-1.0647273539595849e-05,1.476392201702096e-05,2.2590066307348727e-06,3.088773758937151e-06,-1.8238162197916131e-06,-2.4908353018929816e-05,2
-1.0935047690945173e-05,2.883951719750209e-06,5.092029850509009e-06,-6.364686263112957e-08,2.0770192541638263e-06,3.4609166457697544e-07,-4.138258168214511e-06,-2.669463517017457e-05,1.7090580892446712e-06,-7.572426946749413e-06,-2.7999525878130245e-06,-2.0534588893972313e-05,2
-4.244846159408904e-06,3.4910347582378615e-06,3.3466051724948193e-06,1.7080447525964903e-06,3.4162839660192644e-06,1.1525066249889953e-06,3.4079501772050487e-06,-8.481558819587472e-05,-2.4671089475212006e-06,-1.4463345068354723e-05,-1.6508625233304219e-06,-1.360596603637044e-05,2
-4.3568742392671525e-06,2.4530966656480403e-06,1.0524377776205192e-06,2.9520398912961416e-06,1.581970462161392e-06,1.0417974132452554e-06,4.0765774215933375e-06,-0.00013761849356434691,-4.924191601702306e-06,-1.3617446118268072e-05,1.72265285351458e-06,-7.599822777854616e-06,2
-1.64619990669378e-05,-1.0672959964578935e-06,-2.3722918490440213e-06,3.13596631843136e-06,-4.5083195656489683e-07,1.0118690194129236e-06,-2.332244238613339e-06,-0.00013492798944000347,-2.818858753270508e-06,-6.420379277436653e-06,4.5435155018483145e-06,-2.073297504683713e-06,2
-3.397825776248255e-05,-3.3967856931302753e-06,-5.212859722909591e-06,1.8610493919521412e-06,-9.503837442331947e-07,9.948267739605141e-08,-9.612333826415608e-06,-7.450721024719545e-05,5.569882109273423e-07,3.1298992913982672e-06,4.6101912944895566e-06,3.0032108649738616e-06,2
-4.8352832441534806e-05,-4.936319740312426e-06,-7.072935134202992e-06,-3.199085099878124e-07,-3.214009216343713e-07,-4.848846890859068e-07,-1.1421979946688377e-05,-1.6815966219089337e-05,3.0409808331368556e-06,9.104124875748955e-06,1.7455807891875017e-06,7.4849289156735395e-06,2
-4.7962495981121055e-05,-7.703520618052828e-06,-8.55390111130624e-06,-1.8237265387259055e-06,-2.617665457936567e-07,-3.836146835449539e-07,-5.3448446599045104e-06,9.235433960529845e-06,3.284836691986484e-06,8.948305855807422e-06,-1.6362337156790757e-06,1.1297074473123969e-05,2
-2.199937622300314e-05,-5.168346654286238e-06,-8.230782324357093e-06,-2.741962078090209e-06,-1.4624647768198705e-07,-8.1700778243583e-07,6.522716996992808e-06,3.21660779052744e-05,3.5426099906512025e-06,7.74746136262098e-06,-3.076816956565692e-06,1.004853586687883e-05,2
2.0887389033926403e-05,2.7496493614680854e-06,-8.190249707871217e-06,-2.504537469960452e-06,7.062460176251652e-07,2.8384758191581245e-07,1.6848951806172667e-05,6.232471867357202e-05,5.684376963982292e-06,8.832525841067935e-06,-3.0033901207084936e-06,6.444588936500123e-06,2
4.909807090448598e-05,7.4398310131101635e-06,-1.2026169143977307e-05,-7.882926458352734e-07,-3.4587152470307396e-07,1.7901946388682997e-06,1.8191194719603488e-05,7.61528609947384e-05,5.522636209600968e-06,9.080310568160467e-06,-2.270235548145836e-06,5.893307141043712e-06,2
4.0179214631154324e-05,6.732418515103165e-06,-1.8442782982661702e-05,-8.22687278913278e-07,-1.8557549586399645e-06,3.9738278799508713e-07,1.1987063125503438e-05,6.694927073039951e-05,2.2093037836454036e-06,6.195189371449614e-06,-1.3705989435081492e-06,5.408936390825584e-06,2
1.1854089477811691e-05,2.589344656258138e-06,-2.3509927310656425e-05,-1.8464914386034746e-06,-1.0979874224004715e-06,-1.150207938755393e-06,5.614771718075093e-06,4.982434940051851e-05,-2.4526944968910047e-06,-1.255151231011142e-06,1.5976111353837677e-07,3.081677410116865e-06,2
-4.202418437114337e-06,-2.978461920026889e-07,-2.150070216746109e-05,-1.1217846601400694e-07,4.922831180295926e-07,-3.418395062556678e-07,2.9579230511868054e-06,3.407861776708852e-05,-6.832555773284333e-06,-1.0375280614006573e-05,2.2180326706903673e-06,1.608930439959699e-06,2
-3.93899745529548e-08,1.5109045168010004e-06,-6.321884704390299e-06,2.403448929587305e-06,1.9919499599733993e-06,8.681767802953089e-07,2.255029483495522e-06,1.902540585618608e-05,-6.304699014713896e-06,-1.3615128323082569e-05,2.1936714872813258e-06,4.1053451335043256e-06,2
1.3468178303212524e-05,5.186873266131612e-06,1.922581469993569e-05,3.3664131967641475e-06,2.199220546739868e-06,4.341390440687975e-07,6.298940896398783e-07,4.235198485156138e-06,-2.023192738834489e-06,-1.0676737322024498e-05,5.868667784841455e-07,9.672025828190311e-06,2
2.144770187701653e-05,7.666604730390998e-06,3.9915524907079126e-05,4.148010216017315e-06,6.58036347024331e-07,-1.4827310160824153e-06,-1.3792504186161417e-06,-9.800357225649338e-06,-9.303900870251816e-08,-5.05687824822473e-06,6.052053435178107e-07,1.2558646356195036e-05,2
1.6698291808138263e-05,4.4555934403095584e-06,4.509233925581745e-05,5.2197324395571925e-06,-1.017767478133376e-06,-2.249601108646611e-06,-3.1821730280146136e-06,-2.4135343650550953e-05,-1.487696573794488e-06,1.3192983092470341e-06,1.1406268793286112e-06,8.886732848843543e-06,2
4.820766678109166e-06,-4.887858673603523e-06,4.052942080666043e-05,6.2593331953413185e-06,-2.6067045051044973e-06,-1.2272608168433454e-06,-7.441969095203175e-06,-3.1615094931693374e-05,-2.844329406758623e-06,5.929754404593626e-06,-4.207993246317314e-07,3.075846459042315e-07,2
-7.221532010589447e-06,-1.0593568613685544e-05,3.155589334776232e-05,6.9296908981867984e-06,-2.9953594868923496e-06,-1.243459454633001e-06,-1.2334309096880643e-05,-2.2126049144535932e-05,-1.3679404105758944e-06,9.84409981382584e-06,-2.234342270173901e-06,-6.0765561116100875e-06,2
-1.4910685004924606e-05,-8.529412714834594e-06,1.7859689938367064e-05,6.599981954217176e-06,-1.1188502365359227e-06,-1.5703373095123657e-06,-1.2682692645524808e-05,-6.84901934933962e-06,1.178552787207479e-08,1.2825092763088565e-05,-1.4471093269587221e-06,-6.146450716381333e-06,2
-1.3803089318725027e-05,-4.4303088593722725e-06,4.966149142126941e-06,3.381234199782566e-06,1.1949879977618197e-06,1.3017974087145394e-07,-1.0897936898522924e-05,-4.102505855729994e-06,-1.4451702188126387e-06,1.059979438305202e-05,9.446898821652995e-08,-3.5977506386257333e-06,2
-5.76283178981223e-06,-7.325673419347401e-07,-4.9377398203710404e-06,-6.4132257757741795e-06,2.8689716222953525e-06,1.462720675192088e-06,-9.383078396725269e-06,-8.46678385856702e-06,-2.3751051976033755e-06,4.1727921323303885e-06,-9.371696444558655e-07,-6.510342740438863e-07,2
2.477349299925428e-06,3.263883592107353e-06,-1.5258430560654436e-05,-1.924858452165338e-05,3.4320947418831314e-06,1.067269323503637e-06,-4.784040234591441e-06,-7.902048190838525e-06,-2.6201240578445097e-06,-1.6048880068299034e-06,-2.3617894762751014e-06,2.1986686571271476e-06,2
8.04443614731069e-06,6.5692494888977885e-06,-2.4654527737022263e-05,-2.411106373669337e-05,1.8525984034844066e-06,7.944843874951763e-07,1.458480562858508e-06,-3.7343099774178634e-06,-2.4463640516051645e-06,-5.51957904963999e-06,-7.548671738475177e-07,3.844409175643218e-06,2
1.2703235230276921e-05,8.637673165563167e-06,-3.1960878179318604e-05,-1.7487321658923134e-05,-4.3553771000243215e-07,1.0202305196597197e-06,6.80139853338333e-06,1.2227142136353467e-06,2.2442198353367842e-06,-8.347775795841154e-06,1.0981944707364684e-06,3.7284041155846378e-06,2
1.5201813990154876e-05,7.739560774962665e-06,-3.356175249887154e-05,-6.017599693877035e-06,-1.4979880806629262e-06,9.209553479186435e-07,1.1909558739177712e-05,5.67768714934335e-06,8.91376226175005e-06,-9.993271644726308e-06,1.3814643926890325e-06,-1.2252512032827494e-06,2
9.27293139908894e-06,1.6738470428062167e-06,-2.2860829507566193e-05,2.541882120211612e-06,-2.012092772295056e-06,-1.6274907901531122e-07,1.5453495442629277e-05,6.8912778223597415e-06,1.0395268990917219e-05,-1.2068142689708531e-05,2.4122144974056194e-06,-7.855952216100312e-06,2
-4.052339732755453e-06,-5.656247503638687e-06,-8.902556790581833e-06,5.947657703984402e-06,-2.6910024728688824e-06,-7.043317848348289e-07,1.8663735924757403e-05,5.577156703744919e-06,6.697801296800471e-06,-1.531004851232882e-05,3.2541185252743816e-06,-6.920235508655897e-06,2
-1.2504504417364354e-05,-8.713658678452936e-06,-8.586143293210123e-06,6.989354439032178e-06,-2.6769351659899428e-06,6.916908473767605e-07,2.0903477429703214e-05,4.7243883084375675e-06,3.337719422034396e-06,-1.6789894333779506e-05,2.620569903219243e-06,-3.029025010540672e-06,2
-8.546388425111381e-06,-7.312139644316905e-06,-1.7772106818753938e-05,8.531891773203688e-06,-6.996305500827071e-07,2.2711072071786542e-06,1.5392319264368755e-05,4.651566870649376e-06,2.629167493007557e-06,-1.567030539952864e-05,1.8443489171973277e-06,-7.111196509659216e-06,2
-2.2406001181087404e-06,-3.4274332536067613e-06,-1.743896285474082e-05,1.145376016220844e-05,2.5062508710236528e-06,3.21786983056975e-06,4.210461028641548e-06,2.7354621029860762e-06,2.112598355758926e-06,-1.499121503376841e-05,1.094911795244639e-06,-1.3892453927615187e-05,2
-7.326733453421032e-06,2.678528058133899e-07,-1.70789486560772e-06,1.3377589259445421e-05,4.423710347679461e-06,2.895236434006633e-06,-2.068959963572551e-06,-7.567386314696141e-07,-5.800610239779952e-07,-1.6993995015875952e-05,-6.055036370431239e-07,-1.2441557974999741e-05,2
-2.0230327498755922e-05,6.003192459368837e-07,1.7077245440552904e-05,1.2472060786991358e-05,4.421542166815463e-06,1.2471696589689112e-06,-1.2948258402778465e-06,-4.191856159589387e-06,-4.343956195921195e-06,-1.3710455993984177e-05,-3.0484089182076182e-06,-2.8299602608691382e-06,2
-3.732967087626065e-05,-4.257819048518403e-06,2.4907962937188395e-05,9.688367148770407e-06,2.839612667866481e-06,3.340256763561799e-07,-4.935719199316601e-07,-1.1069903908928481e-05,-5.584879100856415e-06,5.214952043661114e-06,-3.4792251266583665e-06,7.660398187967365e-06,2
-5.823573933155423e-05,-1.0884536832077751e-05,2.178131546397442e-05,4.4624735804841856e-06,9.826787402748075e-08,-1.3984968878895924e-06,-2.6318051012057355e-06,-1.727812355572879e-05,-5.412651909240578e-06,2.8399273428829465e-05,-1.7760328389074039e-06,1.215563677683572e-05,2
-4.879845786485919e-05,-8.571389049433441e-06,1.8383766622415506e-05,-1.4478712492152844e-06,-2.1839281697214065e-06,-4.133483438056745e-06,-4.253923320097126e-06,-9.55196688346229e-06,-8.319162926416846e-06,3.891269025929701e-05,-1.961859773088264e-06,9.594324345866862e-06,2
1.5238231762559067e-05,6.29475068820046e-06,1.8721568130809578e-05,-4.8877848180516265e-06,-2.980768401771761e-06,-3.6343014892314563e-06,-6.808769364735448e-06,8.868851138313502e-06,-1.1072558368807002e-05,3.902708406349701e-05,-2.5274876353934825e-06,3.6673323687987746e-06,2
7.912294434364365e-05,2.0098467938526082e-05,1.7302802668118754e-05,-7.411336175610093e-06,-2.494586651805859e-06,-9.856719548188728e-07,-1.5994290310071348e-05,1.9882097870086754e-05,-7.948634943713857e-06,3.525192524817458e-05,-1.756810929608399e-07,-1.2367440551662958e-06,2
8.083898566250528e-05,1.8699790334284364e-05,1.164646533731095e-05,-9.20304991133519e-06,-1.721248163900746e-06,6.002321398079699e-08,-2.91194654669741e-05,1.598500141719182e-05,4.3873124150512504e-07,3.050787800471529e-05,1.4755908448534096e-06,-2.4336363571704408e-06,2
3.700994676973676e-05,6.817357261486196e-06,5.545261792440221e-06,-8.29507826848423e-06,-1.0049943470085875e-06,-7.736635365322207e-07,-3.5938552047217124e-05,4.16785723589787e-06,8.602841563085337e-06,2.6882626703981846e-05,1.4976959920018552e-06,-6.842248624983983e-07,2
-2.2924875782496377e-06,-5.417459299316048e-07,1.2956361453905903e-06,-5.884195142669829e-06,-3.447578412219704e-07,-1.7210236836678384e-06,-3.2865480435415156e-05,-8.57638950872611e-06,9.942838626539898e-06,2.318847012921805e-05,2.4654366080375388e-06,3.374854802643081e-06,2
-1.687382362969697e-05,-3.081230774758587e-06,-3.8093276013844765e-06,-4.148093344917923e-06,-9.045480371869688e-07,-9.610945269287704e-07,-2.6273851729673116e-05,-2.2364207744578187e-05,5.720966839595003e-06,1.7352228250988805e-05,1.7648448471610408e-06,6.830445272157372e-06,2
-1.5026843232150415e-05,-7.775001480081087e-06,-1.0026581113124697e-05,-3.3215458744566885e-06,-1.669489646805763e-06,-6.135384257127508e-07,-2.0898073181556903e-05,-3.589577031480732e-05,5.49033431596927e-07,4.518220809363666e-06,-1.063789668783744e-06,5.256689807882467e-06,2
-8.850185437840203e-06,-7.266769617531318e-06,-1.034852744065859e-05,-1.6895738884003732e-06,-1.0384583234068164e-06,-2.0767771383594203e-06,-1.3962731121123735e-05,-4.135258795018719e-05,-4.931353746592401e-06,-1.621751418273749e-05,-1.8307474294953731e-06,2.471548632630201e-06,2
-2.09064210546495e-06,3.8861182458853806e-07,-5.4020318583148644e-06,-1.9139156094637463e-08,-4.964030271554869e-07,-2.014543902636126e-06,-4.0153237534193525e-07,-2.795882860233469e-05,-6.402656919709223e-06,-3.5411924777230335e-05,-6.400958392435602e-07,3.6766374231359814e-06,2
3.444775288645941e-06,2.3129369789827746e-06,-8.32522732305254e-06,-9.311032042760834e-07,-3.7104160522031493e-07,-1.6274583787169022e-07,1.8495812136422218e-05,6.341629766538157e-06,-2.0757757120233257e-06,-4.755123135994118e-05,-6.918134351579509e-08,6.914128501343381e-06,2
4.845724559379374e-06,-6.139598071640368e-07,-1.9219365238805905e-05,-2.368609038723447e-06,3.7029241242363895e-07,6.405480483913565e-07,3.4724353148309344e-05,3.9900642323866283e-05,2.740683034872341e-06,-5.4345768494927426e-05,9.458594107417478e-08,7.251992628041213e-06,2
1.681838806260148e-06,1.2985036152393408e-07,-2.250945025406608e-05,-1.6737477569800436e-06,1.443956202200551e-06,-9.201522868292834e-07,4.318523080047421e-05,4.885892302586281e-05,5.7130982905937895e-06,-5.461066429063971e-05,4.783856905432572e-07,1.2737818460597232e-06,2
-4.8914768903990215e-06,7.465900297015897e-08,-1.4420933571046297e-05,1.139011097281327e-06,1.951506617297744e-06,-2.703266082290673e-06,4.533882561426467e-05,3.963603437283543e-05,6.8807913297112015e-06,-4.6431244438692814e-05,6.491999725500788e-07,-8.578001619234843e-06,2
-1.0101160881701496e-05,-2.956536042250899e-06,-4.550443892776466e-06,5.47474678062332e-06,1.3170787214169637e-06,3.431328145184664e-07,4.613893303700318e-05,3.004534393442969e-05,6.17513292138643e-06,-3.130503687341668e-05,6.644451846381864e-07,-1.542606343960532e-05,2
-9.764501568680906e-06,-3.6526718332044606e-06,2.264381692076342e-06,8.017183186823019e-06,1.4366708421788896e-06,7.026925984332069e-06,4.614137605548461e-05,2.172502537929168e-05,5.011137210930366e-06,-1.3277541382624459e-05,1.0355044076052134e-06,-1.495243139694537e-05,2
-6.583867463856814e-06,-2.3085409894291403e-06,7.003149930700668e-06,6.862676865132074e-06,2.6569947458099524e-06,1.0066557225360212e-05,3.591983884945921e-05,7.1933401831585984e-06,4.364481211245188e-06,3.872027880132164e-06,1.333796414868506e-06,-1.0560402235479578e-05,2
-3.8074144371765406e-06,-2.6847368091917012e-06,8.908317382760757e-06,4.4605444813532015e-06,2.8493702673526596e-06,7.199420171648991e-06,1.2426968976197986e-05,-1.4838792682234047e-05,3.7103122255866843e-06,1.9173360166657997e-05,6.476485882288899e-07,-7.38846358947151e-06,2
-1.4156633537837047e-06,-3.1868784913441753e-06,7.94837264739613e-06,2.5806756777294096e-06,3.3000292554114396e-06,2.4561723554002655e-06,-8.763866476262279e-06,-2.9918176538932155e-05,2.0447884878583723e-06,2.7792285405383298e-05,-1.7630350854898927e-07,-3.0796722441071637e-06,2
1.4516321810651745e-06,-4.222705783097256e-07,7.4567830528102745e-06,1.8235617413336923e-06,2.964264958423545e-06,-4.3434415227051494e-07,-1.67767722116841e-05,-2.237978465913185e-05,-2.4775374714204054e-06,2.6572834851095172e-05,-5.189603253898246e-07,3.8483614414480555e-06,2
4.494113587116947e-06,1.4718218022258962e-06,9.46368985065383e-06,2.2330332565752074e-06,-5.05865207887313e-07,-1.620961442201697e-06,-2.0793640533917802e-05,1.913475715119078e-07,-9.473369089456149e-06,2.6620741882944728e-05,-1.3024879180840858e-06,8.173269408958876e-06,2
5.639931284622761e-06,-2.153741524723669e-07,1.1352897207084825e-05,2.2054929056627964e-06,-2.464417284029657e-06,-1.269345436867119e-06,-2.5597072217102448e-05,2.0024886632228946e-05,-1.2702584933638135e-05,3.229606418831174e-05,-1.5597349805792436e-06,7.013978457175469e-06,2
3.3199974932380316e-06,-1.0810003670887204e-06,9.561008731711652e-06,-1.6861517475995484e-07,-8.791861143152413e-07,9.258363055408023e-07,-2.2235158120718792e-05,2.640507430573917e-05,-9.945768793213148e-06,3.3311550514281324e-05,-2.8924560019718583e-07,3.7204919417780604e-06,2
-2.826459216091646e-06,-1.982686155168698e-06,8.034538432756402e-06,-5.024964932916574e-06,-8.405076240078026e-07,1.4284395884548734e-06,-1.5914056789166286e-05,1.2264041904021162e-05,-6.213013063330744e-06,2.9677725528802327e-05,6.660881773216542e-07,2.37700042518594e-06,2
-9.661932896373242e-06,-3.353009973538484e-06,1.1276590381028863e-05,-9.804905127501727e-06,-4.175352636474746e-06,-2.050259673977782e-06,-2.314114794967829e-05,-1.435846554794338e-05,-3.2037812920051263e-06,2.423733901864091e-05,-3.130276600923461e-07,2.4337011631225303e-06,2
-1.1105736515664362e-05,1.275115055622886e-07,1.154226983764557e-05,-1.0236610645316813e-05,-6.502586719024758e-06,-5.808767669007825e-06,-3.536123292840729e-05,-2.9448293572688044e-05,-1.1931377288797912e-06,1.235366379663388e-05,-1.7914925715025611e-06,2.898061917652639e-06,2
-6.101090603434789e-06,6.810502739076432e-06,2.4890093880372423e-06,-5.244509124173914e-06,-4.210000950640695e-06,-6.39340959760238e-06,-2.981934701632613e-05,-2.2226452828747353e-05,-5.636844708542403e-07,-1.2035610022188943e-06,-1.3617021993333308e-06,4.9047102650846526e-06,2
1.4584703170184222e-06,1.0707526390092455e-05,-9.246764390986318e-06,-3.931692094623935e-07,-2.1048577916089594e-07,-5.467065592009718e-06,-1.0420911580324396e-05,-5.1058199093427294e-06,8.626060557707568e-07,-8.410612803161804e-06,1.3267499250403033e-07,6.782995324294814e-06,2
7.679973941635696e-06,1.1014513118155372e-05,-1.6296181697023998e-05,6.349370502632261e-07,1.171709582001506e-06,-4.472948331863217e-06,-7.416393828976414e-07,2.1491918411721358e-06,2.1275951206661565e-06,-1.108993403288787e-05,7.792812891721879e-07,5.48721064282739e-06,2
1.002771171351809e-05,9.923860854743482e-06,-1.7279622387571146e-05,1.1964945963841614e-06,6.16677038166848e-07,-2.5476424894170505e-06,-7.32420946816826e-06,-1.0349490073331358e-05,1.936590378677274e-06,-1.3356404600994954e-05,1.0186011331304215e-06,8.829959659069592e-07,2
8.949555270182184e-06,7.722191797340811e-06,-1.5112893575372052e-05,2.9745403276785318e-06,1.9575857729889747e-08,-1.783504293534413e-06,-1.3204014371261667e-05,-2.961348079967981e-05,2.515400696198231e-06,-1.550339924017255e-05,1.2821301551126878e-06,-3.444233148854475e-06,2
5.640742343150846e-06,2.4447114067975016e-06,-1.4370059138963867e-05,4.242427635647564e-06,-1.4025465160407392e-07,-2.7296713631495787e-06,-6.166947514224126e-06,-3.506877377984638e-05,4.314098517839675e-06,-1.4598744272003055e-05,1.2332692383755267e-06,-4.205042781895779e-06,2
5.569605245205175e-07,-4.321578528168002e-06,-1.4899827306444103e-05,4.351112834877565e-06,5.970672082183086e-07,-1.3298587849994738e-06,6.071941675977568e-06,-2.6694041933335197e-05,6.327483101183763e-06,-1.0787254078322384e-05,8.545155799269123e-07,-3.275462674159639e-06,2
-4.792787075420367e-06,-7.368740204557349e-06,-1.3054689556803154e-05,3.154495070372505e-06,1.4261206412403829e-06,2.572724316773442e-06,1.3420278468641497e-05,-1.751536398813962e-05,7.418265724266581e-06,-7.196910258235281e-06,3.6382064604247113e-07,-4.347606373438775e-06,2
-7.98469297641405e-06,-6.658466816274238e-06,-5.967985942977267e-06,1.3794637578272389e-06,1.288468223846793e-06,4.6569044229399436e-06,1.4616014002078394e-05,-9.396085414173843e-06,6.75047222423341e-06,-2.8556583377539415e-06,-2.396562401873103e-07,-6.970485840219063e-06,2
-6.6882437327631305e-06,-7.129454989627357e-06,7.748400672239105e-06,7.632759557251053e-08,8.11273268159314e-07,3.75187004387098e-06,1.3566721848998239e-05,7.67920722090187e-06,5.883148893446891e-06,1.2205412571883408e-06,-4.909317996894333e-07,-7.40727313334163e-06,2
-9.187613875268731e-07,-9.735220612090781e-06,2.1881087263411333e-05,-5.373940727221601e-07,5.783412692579509e-07,3.173582672084457e-06,1.4912177416186684e-05,3.3543101530312905e-05,4.8616207552514275e-06,1.1058963014529146e-06,4.3978953937097287e-07,-5.906793348240344e-06,2
6.808499304005781e-06,-1.1842088051076448e-05,2.589260434745303e-05,2.868908643021688e-07,8.824555129329674e-07,4.065129065363158e-06,1.7971320713817873e-05,5.070440759861366e-05,2.162368677756727e-06,-3.95556255226572e-06,6.83337761831335e-07,-5.750589499713501e-06,2
1.246349602791821e-05,-1.2827101780291952e-05,1.827085093798739e-05,1.7427526003845556e-06,1.8492589629853956e-06,3.752125460732535e-06,1.894820777556194e-05,4.886071183086692e-05,-1.6784483970498301e-06,-1.2331970009615428e-05,-8.550355444057884e-07,-3.823306041119232e-06,2
1.3859867448541487e-05,-1.2993602889790038e-05,6.739326124503001e-06,1.940886647951112e-06,2.2412715815836847e-06,2.1469764940808667e-06,1.5889353631005717e-05,3.495923112065129e-05,-5.797682674892108e-06,-1.873621977294015e-05,-1.239571569539641e-06,6.611931973671388e-06,2
1.3368058513533272e-05,-1.2058068355002789e-05,-1.4599672578447268e-06,1.0315267687986427e-06,2.0072972303830085e-06,1.2809300632535815e-06,1.0694421622048687e-05,1.8967930734937082e-05,-8.455020955003149e-06,-2.0431455864218388e-05,-1.1444278539524916e-07,2.2078212106623644e-05,2
9.049842600170491e-06,-5.5195165660174705e-06,-5.866717729401099e-06,-9.006581126493998e-07,2.0009388053738416e-06,9.850501096351496e-07,7.6062960299287126e-06,5.862580339238655e-06,-8.778496944825362e-06,-1.851933819002979e-05,2.327185158157121e-07,2.5326768727252926e-05,2
-1.2975742128180705e-06,1.298530365134751e-05,-8.187790329479171e-06,-2.689555059113711e-06,1.1311835800274718e-06,1.1174995816628488e-06,6.114125174587269e-06,-5.706433873714855e-06,-7.270718523978389e-06,-1.2040648231968681e-05,-3.4084876710380686e-07,7.952389788448413e-06,2
-8.385294499353876e-06,3.324571360346512e-05,-8.058791266556813e-06,-3.266908160358083e-06,2.876067315032075e-07,2.2691432628916487e-06,5.560105326442769e-06,-1.4104151640242581e-05,-2.739813545711574e-06,-2.1829114427014717e-06,-1.4073752338715676e-06,-1.1397645076269717e-05,2
-8.831584758648208e-06,3.5534327045160114e-05,-4.852207202814744e-06,-4.289592928105746e-06,8.631134929091002e-07,2.0768589025155057e-06,6.9811970747950255e-06,-1.0281283772060919e-05,3.0199181545629026e-06,8.591646171666941e-06,-2.074941173185056e-06,-1.330595536404748e-05,2
-1.1435558996183174e-05,2.08644941963399e-05,2.4143534431825986e-06,-4.660648783192997e-06,-2.8582967587611323e-07,-1.3665084954940412e-06,6.145080310711692e-06,3.179047184757286e-06,5.67993245990805e-06,1.714307404337674e-05,-8.652116178998876e-07,-5.751138038818651e-06,2
-1.9106487559226854e-05,3.331576208700927e-06,7.612263878518752e-06,-3.2548096602118193e-06,-4.2649769641897656e-06,-4.734253635445114e-06,2.168816815104988e-06,1.0735821916943363e-05,2.0553687780979914e-06,2.47155877577097e-05,9.071634207456571e-07,-5.35771479210339e-06,2
-2.9612576860963555e-05,-1.051720881729904e-05,3.106477466856761e-06,-2.1650018749962965e-06,-6.6347600161590705e-06,-5.201573658943041e-06,-2.613009109361739e-06,8.283328867552402e-06,-6.13368650534911e-06,3.719035097513889e-05,1.0446087280035762e-06,-1.3118312483309455e-05,2
-3.5901036685617774e-05,-1.7309155350024426e-05,-4.8029053088518996e-06,-1.1955884458011229e-06,-4.915255820048575e-06,-3.089471678264059e-06,-1.0759577604357354e-05,4.109239244164572e-06,-8.863367051133302e-06,4.437163902671746e-05,5.827077296533434e-07,-2.2399933929997455e-05,2
-2.3898089740018643e-05,-1.5270699884078804e-05,-7.60984652921458e-06,1.326132385808911e-06,-1.7089188931397686e-06,5.226917695584416e-07,-1.8006645671790797e-05,6.94131152564734e-07,-3.463069255463821e-06,3.3232079703638854e-05,5.910542567977854e-07,-2.387709676699464e-05,2
8.457471989606892e-06,-6.955811292188039e-06,-3.976250911617415e-06,5.603126720565519e-06,1.202455211075522e-06,2.1589499409892075e-06,-1.55715682538954e-05,-8.188253678712378e-06,2.4734936388979444e-06,1.332132984763301e-05,2.7919606465022233e-07,-7.047628455170406e-06,2
4.000974948652817e-05,1.3768789608489532e-06,2.731535798198376e-06,9.417142931090381e-06,3.785260600445049e-06,5.856191306872645e-07,-1.1102317212267346e-05,-2.9278056089484084e-05,6.538230077851967e-06,-1.4011305713176628e-06,1.594697007517636e-07,2.0010141229218536e-05,2
4.674056191853422e-05,2.756602091109679e-06,5.132347924318204e-06,8.91933088619356e-06,3.698095940602478e-06,-7.370253481767547e-07,-1.9214609448741906e-05,-5.666533181073179e-05,7.2155684329540274e-06,-7.801629753814157e-06,1.1152244014097124e-06,3.751551899288581e-05,2
3.061078959296737e-05,-2.5713299402654775e-06,2.338837798502827e-06,3.321354858076437e-06,1.3089530549611988e-06,-1.59676358641582e-06,-3.343579118022352e-05,-6.637501718093201e-05,3.626631877967638e-06,-9.826545864104908e-06,1.706809433395011e-06,3.847770392362117e-05,2
1.2470182267210277e-05,-8.282483612378479e-06,-1.27285271014858e-06,-2.962688586527866e-06,-4.6270731149151065e-07,-3.5317502252709167e-06,-3.4393564976423996e-05,-4.577536494023378e-05,8.908784321984466e-07,-1.4699803853533716e-05,8.571147104807105e-07,2.49160082032632e-05,2
2.194596693787893e-06,-8.511797254297445e-06,-3.71721907490724e-06,-5.830130619668316e-06,-2.2574543629824835e-06,-3.979458482718988e-06,-1.965933723530488e-05,-1.4498464902815032e-05,-1.1247367846039354e-08,-2.316571670994285e-05,1.1920371855375795e-07,5.3205067302996665e-06,2
-3.6313940518920055e-06,-3.685264214568743e-06,-3.324252081064148e-06,-5.554441482245101e-06,-3.5366818768657865e-06,-1.6391620748937127e-06,-1.2068023797036856e-06,6.493418899938529e-06,-1.5951929082691446e-06,-2.93434117374474e-05,-1.0014648246522287e-07,-4.761434455906991e-06,2
-8.208415390094507e-06,1.6821411685670384e-07,-1.1044922369204872e-06,-2.879541393521951e-06,-2.5779483051946364e-06,5.384130512434019e-07,1.3333258299043247e-05,1.6763613263851243e-05,-1.0505734360095687e-06,-3.09607376902067e-05,-1.3211606437857847e-07,-2.1965284916992106e-06,2
-1.0662945856900897e-05,2.9205039491749738e-06,5.729388599703422e-07,3.9668121197787775e-08,-1.4981997615009378e-08,1.553902626444825e-06,2.06359416291886e-05,2.20848749913548e-05,3.2832030367141705e-06,-2.7146421303387034e-05,2.926874891013638e-07,-2.1282229169985493e-06,2
-1.049156570753821e-05,7.870252746801916e-06,1.2622096095112113e-06,4.3262328288346935e-07,2.9257800851661532e-06,2.3492556677303896e-06,2.097090571614694e-05,2.6148927579681926e-05,5.916160514865168e-06,-1.7702029087825472e-05,-5.049653124956389e-07,-1.3717951461358493e-05,2
-1.0029882604812276e-05,1.224926812084762e-05,1.8698491963702015e-06,6.554162578475611e-07,4.1828701704597655e-06,1.9515634111568366e-06,1.9522000883136318e-05,3.244036761689928e-05,3.6424858372784537e-06,-8.516071861658059e-06,-1.753416423823667e-06,-2.7267657434577903e-05,2
-8.2839842208174e-06,1.0740126344816352e-05,3.6682743107011344e-06,1.613479300422732e-06,4.165792485610368e-06,1.076406294869776e-06,1.8208424108412983e-05,4.318243826836334e-05,-7.628196963202957e-07,-2.001496187016088e-06,-1.639684427172583e-06,-3.212959954661264e-05,2
-3.0089342206164097e-06,2.964409178147698e-06,3.614539314840944e-06,9.114628256393625e-07,3.4459642383337833e-06,5.724877815338992e-07,1.574902748929275e-05,5.458289466852824e-05,-5.571428243939454e-06,5.171524388578178e-06,-1.802321230293906e-06,-2.817505675792059e-05,2
1.4222501594296482e-06,-4.429061374321923e-06,-8.16592425389127e-08,-3.780079672984978e-07,2.805862637290087e-07,-9.534929274865886e-07,1.3176998599009314e-05,5.989457438784644e-05,-8.195712721308622e-06,1.2779760147324344e-05,-1.9011263004598775e-06,-1.8226472060726237e-05,2
6.955994404983826e-07,-6.116861606051051e-06,-1.3341134310070808e-06,-8.118075100000031e-07,-2.3438385171251285e-06,-2.103742671039368e-06,1.1519476402069364e-05,5.8919392717762155e-05,-6.487230345590934e-06,1.8065912798126297e-05,-1.1567557823442918e-06,-6.5456233953434896e-06,2
-1.3731424157593272e-06,-3.0699997350991984e-06,1.8405368153011272e-06,-1.6439211548022115e-07,-2.7311508434928595e-06,-1.3932345060642397e-06,9.986928383070104e-06,4.96028091165314e-05,-3.6458664064149326e-06,1.5685471998670742e-05,-7.0154010474802986e-09,1.1058571869954604e-06,2
-4.105562790567813e-07,6.217102825994759e-08,3.522687514030751e-06,9.498444709384769e-07,-2.984491267479736e-06,3.529750061024758e-07,7.294796976941528e-06,2.2221269024730203e-05,-1.2939931337612425e-06,8.593152133929343e-06,1.7336585504940851e-06,4.093314822035745e-06,2
1.711440651333429e-06,-9.004062427213691e-07,1.2646011716123225e-06,4.0382717916791546e-07,-8.646739164340094e-07,2.480392653545016e-06,4.3154423355644375e-06,-2.368202822936056e-05,1.8857142198241042e-06,1.3944969945651602e-05,2.224804922737484e-06,7.0155121785792485e-06,2
3.074733950380831e-06,-3.140998406085072e-06,-2.725023271874111e-06,-1.5181956873237818e-06,2.266681171780823e-06,4.109940022584123e-06,2.342200158540001e-07,-7.990688035572562e-05,5.307258418016601e-06,3.20432347045833e-05,1.2720335905240315e-06,1.5357988657871525e-05,2
4.4120828884689965e-06,-1.8695622893750863e-06,-5.968029653864299e-06,-3.63786302568773e-06,1.053088721420981e-06,4.781893246136056e-06,-9.061384009573873e-06,-0.00013624120050700114,7.752935245255719e-06,3.9131080912541954e-05,1.109313442715983e-06,3.092771419875536e-05,2
4.803885371946654e-06,2.032389520212566e-06,-7.652521219759272e-06,-4.330387694517448e-06,-1.903137758101009e-06,3.5261625685387434e-06,-1.870865141579385e-05,-0.000156181106553539,7.963420269515098e-06,2.5131923505351734e-05,1.5836747786140468e-06,4.61091607734357e-05,2
1.2926797751272137e-06,4.262390970064045e-06,-7.608570662595603e-06,-1.4796758889878776e-06,-2.2490269859490356e-06,6.52423262878254e-07,-2.189146794279768e-05,-9.868651937629998e-05,3.7028315577151334e-06,4.866944389082553e-06,9.569696896433761e-07,4.984027119370179e-05,2
-6.276495086636932e-06,2.000178096285107e-06,-3.4711775917275967e-06,8.538560687000502e-07,-1.8832546978521828e-06,-1.3322297792384985e-06,-2.1745976325356677e-05,5.110488277133651e-06,-3.955342194401329e-06,-9.539891502097013e-06,-3.9514685453980897e-07,3.8894395635471416e-05,2
-1.2106071165794116e-05,-1.7361963392096842e-06,2.1720021631516507e-06,-6.683349864415083e-08,-2.2004409015749356e-06,-2.3500777684785956e-06,-1.910493114335716e-05,7.260279083995015e-05,-7.795273898907772e-06,-2.0033833836159997e-05,-3.8888640959481696e-07,1.7940340387185182e-05,2
-1.1740310508978692e-05,-4.074616279245889e-06,2.828040350863532e-06,7.778940744819314e-07,-1.4046023931122388e-06,-2.8199539011655107e-06,-1.2979852892385212e-05,7.507364168724891e-05,-4.691955622555516e-06,-2.789589884008092e-05,-2.2377145522656303e-07,-5.841307247781525e-06,2
-7.060363464292022e-06,-5.235232211421165e-06,4.1395748322937357e-07,3.6230488078876647e-06,5.33740137038953e-07,-2.0930584394133436e-06,-4.077164318580312e-06,5.043816186332167e-05,-4.7562829975861054e-07,-3.0304660301233592e-05,-9.214358088632958e-07,-2.7472328793319777e-05,2
-6.922871114258294e-07,-3.5535883841791127e-06,-6.611658965524051e-07,4.688702036662397e-06,1.8732995381956635e-06,-8.663852717704625e-07,6.3331149553008844e-06,3.1318199239673954e-05,5.517061810805633e-07,-2.711704503989309e-05,-7.464542097066602e-07,-4.210194248039197e-05,2
5.5687211358646816e-06,-6.090839991527267e-07,6.423441780500569e-07,4.880810858635062e-06,1.8717678473619733e-06,-2.8108011780526493e-07,1.1579304781511785e-05,2.147277011865337e-05,-2.43671680376791e-07,-2.072452435946459e-05,-9.739819594543955e-07,-4.4780934015471324e-05,2
1.014239119874564e-05,6.642261459557766e-07,4.745666888173361e-06,4.372042405188662e-06,1.80133956262017e-06,-5.43100276906706e-07,1.218249566580438e-05,1.7426689549341663e-05,-4.6166143265372227e-08,-1.4868612894575671e-05,-2.1061273578534785e-06,-3.883820233863589e-05,2
1.3729245895965624e-05,1.5249995713028685e-06,8.187557681709428e-06,2.081475896126893e-06,3.5320869544662153e-06,-4.2608771078985264e-07,1.3168326453684362e-05,1.5676821339194865e-05,1.7891454294262345e-06,-1.0192031281986384e-05,-1.6613708425151093e-06,-3.1495994241155764e-05,2
1.604558373469013e-05,1.859518730814221e-06,8.092038285374457e-06,2.1245914083200713e-07,5.039142904822762e-06,-2.686059329001291e-07,1.1088866584409537e-05,1.1997260082746308e-05,3.630682704078421e-06,-4.2278965488084756e-06,2.51490012731283e-07,-2.6014141272368304e-05,2
1.3542271472590596e-05,9.000430016246473e-07,6.039864996048437e-06,3.540835328481116e-07,3.0472060118647217e-06,-1.0602706785834928e-06,5.116957184734911e-06,1.9203049462333457e-06,3.518055062940103e-06,9.745628129769944e-07,1.3625406971708773e-06,-2.294502654475891e-05,2
7.219724720779869e-06,1.0441274490416942e-07,4.752529006179784e-06,6.915609223502189e-07,6.765493135391352e-08,-1.3171119555585711e-06,-6.253820406760437e-07,-1.1577718650513931e-05,-6.651149432559328e-07,4.059380549572882e-06,7.043317459907304e-07,-1.9647722313070796e-05,2
3.610285988157988e-06,9.328503363208364e-07,4.536540830639694e-06,-1.149590184303389e-06,-6.540183205943168e-07,-1.5724327326752482e-06,-2.3381499729593683e-06,-1.4554531556782365e-05,-6.892258199491797e-06,6.857507029529563e-06,1.491786586199752e-07,-1.3354323160638358e-05,2
4.354917037069069e-06,2.6834071072860626e-06,8.432588107952323e-07,-4.8646254028639215e-06,-1.3638472128225631e-06,-1.6662421263830386e-06,1.0953511051459762e-07,-3.0349075715197555e-06,-7.919335041273376e-06,8.384819050754938e-06,7.676886320464092e-07,-2.4271937251507425e-06,2
6.151273532786357e-06,4.305670110149119e-06,-6.25982253458662e-06,-6.685379095473319e-06,-3.0604515665219045e-06,9.231797931584256e-07,4.0311254818685855e-06,6.433300415642117e-06,-1.9066692024273107e-06,1.0260932369173114e-05,8.497449089736349e-07,1.1598816409417297e-05,2
1.919824321297794e-06,5.812586553416639e-06,-1.100591904399937e-05,-4.4484640305542865e-06,-3.1970845153390475e-06,3.2305345985583207e-06,8.716085303143424e-06,-1.199873978648249e-07,3.7307766109594202e-06,1.280512259754504e-05,4.886853021673228e-07,2.2252357327542507e-05,2
-1.5484713269564505e-05,2.747547587859022e-06,-1.2065488044851076e-05,-1.5972359030443151e-06,-2.184424303741166e-06,1.4022065619664202e-06,7.335911601525416e-06,-1.1023540722914455e-05,3.4678174917135063e-06,1.7296395147449428e-05,1.020711547171054e-06,3.163846285993878e-05,2
-3.710103798411209e-05,-5.696428468805188e-06,-9.06209036262653e-06,-1.0227170651386014e-06,-2.1201307278076895e-06,-2.3033684471737928e-06,-4.246707503257727e-06,-7.899938455392644e-06,1.3180768102374262e-06,3.319068891265042e-05,1.4606075917451088e-06,4.813036957737635e-05,2
-4.881869405781344e-05,-9.857465566005826e-06,-2.9829113092459285e-06,-1.387924360819123e-06,-3.135911535152285e-06,-2.6313066011581066e-06,-1.4613768183049466e-05,3.7656126644796995e-06,2.5429719312706e-06,5.0684270728792565e-05,2.1290719856342257e-07,7.00127685028611e-05,2
-4.681976954880806e-05,-5.0685713669575154e-06,1.3073837557837488e-06,-1.684438186518026e-06,-3.763582974636004e-06,1.1324971889318065e-06,-1.5810352714691346e-05,9.618583532305015e-06,4.258381108032725e-06,4.62820274462372e-05,-1.5563917016835642e-06,8.753113031616907e-05,2
-2.7628771727800588e-05,5.062782259392937e-06,2.638633514072346e-06,-1.8656587298953071e-06,-3.289255056818813e-06,1.9668626377677825e-06,-1.257295741279996e-05,6.454577905006315e-06,2.2954733114504756e-06,2.2120782219908365e-05,-1.0770123868640973e-06,8.533323235924814e-05,2
6.235170661101687e-06,1.3201344706269972e-05,2.693973207556198e-06,-9.077379817294299e-07,-2.996704306857624e-06,-1.0081339785479604e-06,-9.219165956094594e-06,-3.8402661425653984e-07,-1.1812781402025325e-06,-5.875168747449925e-06,6.860118671375498e-07,5.158739703290389e-05,2
4.623269446313555e-05,9.747770221153309e-06,3.5293548035465714e-06,2.440949175110807e-06,-6.892778308212338e-07,2.7768661206731714e-07,-3.887507009978492e-06,-2.1824617754933838e-06,-2.3745140500584332e-06,-2.8348453233675044e-05,9.347492217633459e-07,-2.104342345944071e-06,2
7.915456006383635e-05,-2.1336604976915805e-06,6.394806814359752e-06,6.785874242713261e-06,5.7036761782365025e-06,5.209897801923869e-06,5.203237167261226e-06,-1.6452780361287148e-06,-4.807435523782372e-07,-4.095156315695789e-05,8.964588895900108e-07,-4.795870483019716e-05,2
8.027465655822204e-05,-7.385212467224013e-06,6.883397176436906e-06,8.069890324398135e-06,1.0561062019539751e-05,6.101886781954814e-06,1.2969041178321436e-05,-9.330496795141751e-06,1.4200301093021346e-06,-4.6733288926271005e-05,1.6060743982424488e-06,-6.998230605545853e-05,2
4.9143281162693944e-05,-2.7480104055080586e-06,2.9403376168962978e-06,5.284161523866721e-06,1.0100214460996794e-05,3.0614580853470228e-06,1.3528322850905152e-05,-2.22952519884799e-05,8.344426744638909e-07,-4.88138430337513e-05,1.106247947286964e-06,-7.351665979261149e-05,2
1.5870094156471806e-05,1.5686605110577898e-06,-1.1346390793955336e-06,1.7231162352710177e-06,6.893757585699488e-06,1.9473964050620652e-06,8.493107339721341e-06,-2.9522754825802753e-05,5.773800122465021e-08,-4.3621838145778944e-05,-1.0608701051803921e-06,-7.134465579801623e-05,2
-8.453651489956243e-06,9.151194227753407e-07,-4.241552402736991e-06,-1.8983543841828587e-07,2.093341051519804e-06,1.857982169931311e-06,2.607694220397676e-06,-2.6573588063945322e-05,4.872671537962378e-07,-3.0243415412667544e-05,-3.6997126346410343e-06,-7.019146465288378e-05,2
-3.167763161582967e-05,-1.989075975336736e-06,-5.783592684759795e-06,-1.5425600382580572e-06,-3.4177434141409726e-06,-1.8140304792951038e-06,-4.075016711813304e-07,-1.7345514781222882e-05,6.552941418023849e-07,-1.45590926495495e-05,-4.9216554368375355e-06,-6.869385269279348e-05,2
-5.555018237719863e-05,-7.479271484316499e-06,-4.79618436628606e-06,-4.302241362315427e-06,-6.097559704353028e-06,-6.441568772784812e-06,1.9780133553295913e-06,-1.111481947744475e-05,-1.4350982855405746e-06,-7.335745709712892e-07,-3.392776017243687e-06,-6.502371743417112e-05,2
-8.700781939815546e-05,-1.6552609294603283e-05,-5.2657317156896316e-06,-7.699764216949599e-06,-6.17800592135639e-06,-8.733687215584129e-06,7.358905001644008e-06,-1.1974390429862525e-05,-6.212798823227088e-06,8.516787135781473e-06,-1.2581937418818552e-06,-5.9463570598806224e-05,2
-0.00012490368178846577,-2.2771842629765248e-05,-6.982096499121642e-06,-8.323096334284169e-06,-7.1890810187195205e-06,-8.483629327384611e-06,9.562885893389838e-06,-9.55616641676505e-06,-8.603159956356248e-06,1.0887966783295128e-05,-7.960941211248855e-07,-4.3265382705489254e-05,2
-0.00011666708389440303,-1.434525176453779e-05,-3.7404653365737205e-06,-4.379008275591184e-06,-6.854775651858036e-06,-4.492518987793705e-06,6.283447867980314e-06,1.1688954405369847e-05,-5.491161391718324e-06,1.2211869146279018e-05,2.343728472206304e-07,-5.438426302569889e-06,2
-1.4706544150581078e-05,8.864856377514423e-06,4.290910452159549e-06,1.1645980215324353e-06,-2.562757866887079e-06,6.19193286268906e-07,5.722585261991253e-07,5.0325894073695237e-05,-5.093193447739291e-07,1.7761796691378143e-05,2.787590738036755e-06,5.1328579782763e-05,2
0.00011441996913257736,2.6561149468714426e-05,9.949549400868108e-06,4.593843828517154e-06,9.357941464453315e-07,2.778065678095623e-06,-9.043675338530239e-06,8.076945954877471e-05,3.7121279503282176e-06,2.6668819788895357e-05,2.752419894891397e-06,0.00011230033041346481,2
0.0001566965267447968,2.4625897728952146e-05,9.14864332983838e-06,5.278986290008162e-06,1.391420229369684e-06,2.983926824324712e-06,-2.6131150222985186e-05,7.986443222618627e-05,5.072866537267726e-06,4.021412370272492e-05,4.447095149378486e-07,0.00014824136225789604,2
0.00010374216118878466,1.3227505694431712e-05,4.614289764624332e-06,4.06936522826751e-06,3.0619520048445914e-06,3.979089825168218e-06,-3.702439574465867e-05,5.0803403756579936e-05,3.2681135477430688e-06,5.2551241239268056e-05,-2.4489292337926126e-08,0.00013321638178367972,2
3.45529648590364e-05,5.0232030078054945e-06,1.1653554364438698e-06,2.386715094606022e-06,5.649621987778715e-06,5.231846439670657e-06,-2.5557279732103183e-05,1.0473714282404873e-05,2.620734184871457e-06,4.9770144926028236e-05,1.4361902588576612e-06,7.936010172820404e-05,2
4.6238960808447926e-07,1.6332093978259522e-06,6.682440428389284e-07,1.8893542280951866e-06,4.104984123408208e-06,3.969731002301722e-06,-2.1990708182952465e-06,-2.7206463039373937e-05,3.7964848867599444e-06,2.9863052533419653e-05,4.0190273103097305e-06,2.0219207646893814e-05,2
-6.375624986984018e-06,5.297941629107516e-07,1.228771740950123e-06,2.571715002801348e-06,7.57644083871553e-07,8.201646155675727e-07,1.3758076642284839e-05,-5.671397630515996e-05,4.502476804798536e-06,3.375378629113325e-06,4.992390999831783e-06,-2.3609482715827837e-05,2
-1.1716582126859731e-05,-1.1809175122178158e-06,8.046783001040722e-07,2.4189317017648745e-06,3.5135662423061597e-07,-1.1900169317273308e-06,1.8894145830587405e-05,-7.60993989496811e-05,4.240812166609321e-06,-2.039529493139972e-05,1.8168881212159685e-06,-4.5609404465776663e-05,2
-2.4297179989643247e-05,-5.371865681415545e-06,-7.534115610160557e-07,9.403136767225347e-07,3.097184208552234e-07,-1.9490090225327615e-06,1.90828320336284e-05,-7.252890407238946e-05,2.6203745669399607e-06,-3.6524931209071514e-05,-1.7096199660178964e-06,-4.8769455429920386e-05,2
-3.597891107227005e-05,-1.0968900633070618e-05,-2.5035680962754783e-06,-3.5813892421180484e-07,5.705737236309544e-07,-1.582853685954596e-06,1.761941557387269e-05,-4.211212420331278e-05,9.003938092953124e-07,-4.271417925768341e-05,-2.0494928863688065e-06,-4.05025653981295e-05,2
-3.594811285120737e-05,-1.3009492237068694e-05,-1.6847577376433667e-06,-7.391088245060015e-07,2.6698985397664525e-06,7.723372889407101e-07,1.4263319647933831e-05,-8.428040394746983e-06,-2.2249007466118125e-07,-4.065283116880667e-05,-5.00223648953131e-07,-2.798295762235407e-05,2
-2.3210977568932063e-05,-1.0127680149529316e-05,1.4236896826004592e-06,-5.164015799246587e-07,2.5074471351414616e-06,2.0463786434591564e-06,9.593498846365182e-06,1.2068556074323827e-05,-1.4539484394647314e-06,-3.374275320091391e-05,9.133497669556078e-08,-1.979671111850128e-05,2
-8.862056612401527e-06,-7.254690613075151e-06,7.656963940776263e-07,-1.7694500686928978e-06,-3.0306706745494624e-07,-4.429902322375781e-07,3.84095565746954e-06,2.2764170857283004e-05,-1.8338287727108642e-06,-2.1881687772654417e-05,-3.768763160794897e-07,-1.9562259638461054e-05,2
-7.031496261484022e-07,-4.79147746665254e-06,-2.9714161831434785e-06,-4.714213308709225e-06,-2.5771155506484403e-06,-2.7680554669318356e-06,-2.853124668565946e-06,2.607862164587732e-05,-2.7122537518080943e-06,-7.207538842074822e-06,-4.4585989513767794e-07,-2.317926868828661e-05,2
3.469329900870048e-06,3.663354505088964e-07,-1.585260388987223e-06,-5.876447337360784e-06,-2.554380210621992e-06,-1.5633867937242091e-06,-6.632903225974902e-06,2.558685629500004e-05,-6.629049697118706e-06,2.6644718542268187e-06,-1.4462166811780832e-06,-2.6262895259560496e-05,2
7.080039952753977e-06,7.697148587336162e-06,2.556737218039962e-06,-4.32428825384215e-06,-1.3547738839052651e-06,8.722510225804492e-07,-4.7986031390970265e-06,2.865135237944595e-05,-9.650228251062898e-06,6.948405926229858e-06,-3.0332744638607532e-06,-2.5092049150076576e-05,2
1.0261821721528602e-05,1.4032353758374198e-05,3.617928481875551e-07,-1.5885284569927927e-06,-2.9338206804661208e-06,1.457978232259667e-06,-1.357824066024796e-06,3.430604149983304e-05,-6.822863559475642e-06,9.96610304054265e-06,-2.662990311388582e-06,-1.7376947603617608e-05,2
8.748290806463847e-06,1.4455375503659653e-05,-5.473492189153327e-06,9.701454855536948e-07,-4.224002640353841e-06,8.775936047282586e-08,-2.1712811774077617e-06,3.174682661612966e-05,-2.006724694797213e-06,1.0162285759811933e-05,-1.1926411067399642e-06,-6.979842740248021e-06,2
-1.6493837889371377e-07,7.531945311959251e-06,-7.042376226729837e-06,1.6600065497053312e-06,-2.0766342624188266e-06,-2.3265229501406485e-07,-5.686818273525946e-06,1.4925227622203013e-05,-6.134822790727377e-07,8.156432199206999e-06,-6.228450423399758e-07,1.3301830452500714e-06,2
-1.09466660250199e-05,-7.629547164795035e-07,-5.29251708847961e-06,3.456370260056732e-07,-8.617765105795913e-07,1.4838206750464714e-06,-5.416974643458828e-06,-8.714347579016577e-06,-7.477063802331491e-08,9.42037396786018e-06,-3.552408757288127e-07,7.417648216677236e-06,2
-1.6842202453867506e-05,-5.311768848968231e-06,-4.167360205435903e-06,-8.193639989063171e-07,-2.971220754208097e-07,1.7133763251296155e-06,-2.782734174884655e-06,-2.3922566200301602e-05,3.256889267502727e-06,1.3728800079072738e-05,5.096877277843076e-07,1.2052722819182423e-05,2
-1.682077268289422e-05,-6.328732619167566e-06,-2.744510982655741e-06,-1.762447597730209e-08,1.5690269451521828e-06,5.51844594017815e-07,-3.054737920871181e-06,-2.1628037813235924e-05,7.102882743883132e-06,1.681526516065488e-05,7.62377630260345e-07,1.5544660232254812e-05,2
-1.35393571768768e-05,-3.2901475507765767e-06,5.85014146684574e-07,1.598754104253263e-06,2.7476047644921207e-06,1.0510345914726367e-06,-3.535915194788998e-06,-1.2807612886879813e-05,8.795461140076502e-06,1.7213455182897674e-05,2.2749568791256002e-07,1.780492372067251e-05,2
-7.833344755942687e-06,2.1962596134974324e-06,4.321071486815926e-06,2.1544124109808332e-06,1.9789998863948544e-06,8.875939458848593e-07,-2.4756504138181765e-06,-8.910958786258877e-06,6.8253089679732185e-06,1.4464296149022063e-05,1.205430208757109e-07,1.9407918583841925e-05,2
1.554683010212668e-06,4.321434038185162e-06,6.297943849093242e-06,1.8214192416781594e-06,5.371299309362802e-07,-2.565138935627984e-06,-3.582550406466743e-06,-7.81318093417541e-07,-3.4840890813929175e-07,7.63550515840075e-06,5.562063483852494e-07,2.0482638738483215e-05,2
1.0477417706611726e-05,3.399471391508596e-06,5.9356792569879275e-06,1.8815942092981319e-06,1.0355542389967224e-06,-5.829551839094949e-06,-5.523578741960518e-06,1.1346108947629373e-05,-6.3384538990943655e-06,-1.2363809595627202e-08,1.0840471592340244e-06,1.7771728632805766e-05,2
1.2367556628583084e-05,2.43417950317952e-06,4.38157300080002e-06,2.7211191623431046e-06,1.7369673844036897e-06,-4.191258573058317e-06,-6.1307277659003234e-06,8.396816287289269e-06,-3.6073359692626477e-06,-4.615540664892232e-06,8.262504041578535e-07,1.1796557588991518e-05,2
8.958678309935745e-06,4.408950184416343e-07,3.4817094650260026e-06,2.379180748756409e-06,9.570835685024451e-07,-8.456133544354153e-07,-7.804611881745379e-06,-1.0119039510675618e-05,3.199363192178335e-06,-7.677707555518336e-06,4.269967448455272e-07,5.967564305801893e-06,2
5.740358764206507e-06,-2.343753996859789e-06,2.362821328320846e-06,7.031421847787797e-07,1.0238138997305902e-06,-1.5648556198312744e-06,-8.68060017139805e-06,-2.6119369417715265e-05,5.770998912354713e-06,-9.026405628204368e-06,1.011009653671127e-06,7.91151608072755e-08,2
4.0765417431834624e-06,-6.5708345696122415e-06,-9.618565700242968e-07,-9.90772432747559e-08,1.0055969013368352e-06,-1.9012179188154578e-06,-4.663435437384564e-06,-3.392597247595161e-05,1.5595214462540247e-06,-1.0651928065262254e-05,1.9681270500729837e-06,-4.864722338417744e-06,2
5.280963865954998e-06,-1.2267644873954305e-05,-4.0670422295780966e-06,-8.142402735506137e-07,-9.818049253483207e-07,2.9143073358843524e-07,2.964446919472717e-06,-3.7871493700482165e-05,-4.032135118750266e-06,-1.8828716884963274e-05,2.7683494715345225e-06,-7.873621436018085e-06,2
1.1705951161036993e-05,-1.5223959465457496e-05,-3.910659986723866e-06,-1.5709521820061919e-06,-3.2840666913744153e-06,-6.14911909874229e-07,1.3301674651705448e-05,-3.6464733012815134e-05,-3.36231197183232e-06,-2.7709043240137005e-05,1.7926881993510965e-06,-8.303597873331719e-06,2
2.2990203919535183e-05,-1.3493733702370616e-05,-9.213123227684046e-07,-2.6921599385974246e-07,-3.4801138206679584e-06,-1.9989000137709283e-06,2.5042365124787198e-05,-2.677371987963335e-05,1.5060323929046835e-06,-2.651617259526109e-05,-1.3359086393077757e-06,-4.439724243092284e-06,2
3.5740091969490285e-05,-8.701601279539745e-06,2.385300067181429e-06,1.2445541776358878e-06,-1.6890739628635315e-06,3.1340936319307355e-07,3.116831385587556e-05,-8.72982872350928e-06,5.259408640727887e-06,-1.7685980494459855e-05,-3.935817636086636e-06,-1.2335293954884053e-07,2
4.4524028404755154e-05,-4.763308883420654e-06,2.64590431574169e-06,-3.296932764694198e-07,2.686986355246094e-07,3.5136386301171335e-06,2.6422335710057808e-05,1.2944843451488513e-05,7.071377831097885e-06,-1.4096545828624783e-05,-4.356668075882037e-06,-1.9459626207919006e-07,2
4.595370980142009e-05,-3.763399069204548e-06,-1.3968491739111051e-07,-2.877942571443715e-06,1.571816230549224e-06,5.737118570333191e-06,1.2917847348825212e-05,2.9037672010742124e-05,5.1400494284459265e-06,-1.4685401037720386e-05,-2.298509173309605e-06,-2.9100279971351737e-06,2
3.9001435960658824e-05,-1.737950887841237e-06,-2.6530188858779506e-06,-1.8370700953084288e-06,1.8506433522665598e-06,7.028621208973235e-06,-8.169918480328404e-07,4.182391126098439e-05,-1.7253297142023626e-06,9.211868181698416e-06,6.351864063073798e-07,-4.3942420123104974e-06,2
2.068869747453384e-05,6.84714982364652e-06,-2.533378064185721e-06,1.0420627656114056e-06,2.4337742939584408e-06,7.277474836766257e-06,-1.098955082233267e-05,6.0008998449431855e-05,-1.0148760590104585e-05,5.895306261664981e-05,2.1126295870351334e-06,-3.4851464050050004e-06,2
-9.02868426069778e-06,2.308548102511402e-05,4.673304261364818e-07,8.792871024911095e-07,3.5090549064765963e-06,5.82024217064195e-06,-2.194102103967197e-05,7.594483709253413e-05,-1.4059855168052615e-05,8.353586563790193e-05,2.0164395466968404e-06,-2.6615092346095195e-06,2
-4.231996043386373e-05,3.632203865906919e-05,4.735105213301235e-06,-5.085492097137457e-07,2.3776485592238136e-06,2.6313212645057894e-06,-2.7253060665566657e-05,7.828202758214096e-05,-9.990511329336426e-06,5.722982790549946e-05,1.1298736636829185e-06,-7.618602649597654e-06,2
-7.924834360974982e-05,3.5889911637054666e-05,7.235138596776532e-06,-3.144221326882325e-07,1.2332097940730732e-06,1.848295875570577e-07,-2.0467372007942147e-05,6.491801159853113e-05,-1.983322514530101e-06,9.308624682608826e-06,6.568964854414489e-07,-1.735450925307943e-05,2
-0.00013022313239669254,2.7540021202876627e-05,4.500860339637743e-06,-9.07369216649404e-07,1.6871670148634255e-06,-8.41079398163796e-07,-1.4165006225224411e-05,2.7871801478977297e-05,2.2840983350479737e-06,-2.9295322945003404e-05,1.122116324278113e-06,-1.6427208847610176e-05,2
-0.0001719834702907533,2.174090130881588e-05,-2.9388421151663426e-06,-2.815211813163929e-06,-1.971438583265045e-06,-3.962541959192751e-06,-1.5726542409169576e-05,-3.520037142526074e-05,9.807941041595677e-07,-5.044648736150678e-05,1.2875357740779795e-06,9.059273320319286e-08,2
-0.00015958255728542917,2.0538874632591808e-05,-9.977862929323324e-06,-4.147966700657694e-06,-9.196216079369168e-06,-9.78119774926138e-06,-1.5109672268152544e-05,-9.47574706678287e-05,-1.4906281565719262e-06,-5.4027649046347635e-05,8.76013710388946e-08,1.197275715955041e-05,2
-9.17474376516269e-05,5.170139209711721e-06,-1.1965753823313246e-05,-4.0256150581191185e-06,-1.1325219551497695e-05,-1.18121239446187e-05,-3.207252741112548e-06,-0.00010121502965355764,-2.427465812617497e-06,-3.861399994617074e-05,-1.1642362810943836e-06,8.679361363148839e-06,2
2.373674258249947e-05,-4.303386844234925e-05,-7.000286825251039e-06,-5.722774338591379e-07,-4.8211769820934805e-06,-5.6657895810298726e-06,1.7882297058490764e-05,-3.151711006264238e-05,-1.1125807402795755e-07,-7.608751013121006e-06,-6.138499920203263e-07,3.2402504358269024e-06,2
0.00017380812870518842,-8.914898925129235e-05,1.7053785135748496e-06,6.015488726486955e-06,6.108584285773125e-06,2.833787984715757e-06,3.656131122732051e-05,5.8807192752466624e-05,5.4018849899350214e-06,2.1956788460964552e-05,-1.2225667673834123e-07,3.9984733045762e-06,2
0.00026006692065417045,-8.079024167442193e-05,6.9765234922252855e-06,9.522899765155763e-06,1.236667843018359e-05,6.0750038336177616e-06,4.066989747896586e-05,7.403320554330048e-05,8.360669462982793e-06,3.0335256788898976e-05,-1.464358413859104e-06,6.298292141740213e-06,2
0.0002009363877729838,-2.5470633811596924e-05,5.945970209348589e-06,5.459345756747802e-06,8.266870524415836e-06,4.239628073709855e-06,2.709343513223687e-05,-2.665387733217128e-06,6.9937119616516234e-06,2.0680390309288065e-05,-2.52982380625728e-06,6.675478310938853e-06,2
7.007933300674163e-05,2.6449294546043474e-05,3.1686592591418797e-06,-1.179565454673184e-06,2.7736163385418057e-08,1.371007025943915e-06,4.240572550776977e-06,-0.00010154246562601863,5.104683618748468e-06,1.211562941686695e-05,-1.8842491131137382e-06,6.188118786953359e-06,2
-1.646537151505e-05,4.139604897422159e-05,2.2036364794860074e-06,-4.019362510879606e-06,-2.9240160404593164e-06,-8.053794539046849e-08,-1.497740035847845e-05,-0.00014859492336526657,5.247181318947252e-06,1.0762407110661315e-05,-7.711062085406694e-07,5.4243948927822965e-06,2
-3.9262169599667614e-05,2.601547964686212e-05,8.860668047846332e-07,-3.4032295570079797e-06,-9.91545592048158e-07,-1.5869520745382175e-06,-2.5038264296489404e-05,-0.00010613955779956535,6.725519304958448e-06,8.768416759120639e-06,-1.195828265698012e-06,2.8628154035026438e-06,2
-3.7918082593247134e-05,6.993767023238348e-06,-2.3271872764803206e-06,-1.5602555721339533e-06,-1.018255574068868e-06,-5.687229793349887e-06,-2.9487431661775542e-05,-5.894839787022921e-06,4.298697723255888e-06,-1.143607999913018e-06,-2.0166263601744306e-06,-2.049512050035772e-06,2
-3.6811731779725165e-05,-3.972923063383899e-07,-4.841812331904906e-06,1.1738862626440812e-07,-3.4954023491018874e-06,-7.82275601320093e-06,-2.805438510865767e-05,6.965042130328948e-05,-1.8652352162359925e-06,-1.4589867904173355e-05,5.490170343745062e-07,-5.6358575914580455e-06,2
-3.652181696930935e-05,2.4163893393017125e-06,-4.197673579704099e-06,4.2108661387682465e-07,-4.3115653993402395e-06,-3.265452764030339e-06,-1.4884290931356961e-05,8.013432828051127e-05,-5.864133869811471e-06,-2.0123795534266172e-05,4.226315806584132e-06,-5.00063779664485e-06,2
-3.410068168812763e-05,7.158055114109289e-06,-2.6035645521548043e-06,-2.710098268321455e-07,-4.097333253877658e-06,2.361240694146884e-06,3.822170500877868e-06,5.510916841421048e-05,-6.6207328085611276e-06,-1.8416096918034183e-05,4.434202440439248e-06,-1.2390988243277207e-06,2
-3.073927717160517e-05,9.115324337233144e-06,-1.7431448247875048e-06,-1.0729254626432042e-06,-3.483204490986045e-06,3.951675509527556e-06,1.4256168597250027e-05,3.499759095348026e-05,-5.22453618693587e-06,-1.7459050700467113e-05,3.4190811517241534e-06,3.0265614038493926e-06,2
-2.616568169553494e-05,9.406721860990853e-06,7.543118154277751e-07,-8.276757409926055e-07,-1.533546630417466e-06,4.406553112386879e-06,1.4442198283622514e-05,2.764324388271748e-05,-4.137858129176337e-06,-1.4713768767650545e-05,2.5312175144942948e-06,3.7786657928563e-06,2
