emg1,emg2,emg3,emg4,emg5,emg6,emg7,emg8,emg9,emg10,emg11,emg12,label
8.059214628905637e-06,1.0451739771047112e-06,4.308792582827029e-07,-5.384827304459126e-08,-2.1441229579677556e-08,9.198507691530232e-09,-2.901748309666526e-08,1.3508904133533687e-06,-1.5753177427221377e-07,9.804209532970892e-08,-3.4269672424096255e-07,-3.956804850234023e-06,1
8.062939196744333e-06,2.5377366477840407e-06,4.407441415107626e-07,1.5557997543801737e-06,-4.287572754163155e-07,-2.9701373936155805e-06,2.2213209373053243e-06,2.591382406824154e-06,2.157202091987322e-06,7.86235818847529e-07,2.0305931219379306e-06,-7.198518606292335e-06,1
3.97454557069368e-06,3.3338651972394022e-06,-6.412647750146768e-07,4.191790654273016e-07,4.416797168135823e-07,-6.729353522248049e-07,3.4454118802192113e-06,6.069905985632269e-06,2.5197031571675034e-06,3.7824133357676993e-07,4.053600924699648e-06,-8.684937660339066e-06,1
-1.5015712315631571e-06,3.029252689279173e-06,-1.116878922061843e-06,-1.1477509655135401e-06,2.1995499689314947e-06,2.5560761406242733e-06,3.262794735018684e-06,7.704769718686835e-06,-4.1506035315318995e-08,-3.4281781606876146e-07,1.9657410081580087e-06,-7.760615842212504e-06,1
-5.332768836802255e-06,1.3547648209449716e-06,-3.48916745801999e-07,-1.4044244732016972e-06,1.914658008163736e-06,2.3981268338752944e-06,2.748689132691501e-06,6.2001944509886335e-06,-1.1064107073988184e-06,1.0429374577802353e-07,-1.7785811084650866e-06,-3.855123026425163e-06,1
-6.01466572884444e-06,4.722210261923755e-07,1.4989082450931286e-07,-1.7184037630381365e-06,1.8922489034755096e-07,9.935968377727682e-07,3.742150903455771e-07,4.296573022505066e-06,4.622403285179186e-07,1.6420069945279805e-06,-2.382011574268022e-06,-1.3149701078231993e-07,1
-3.562624664555018e-06,6.496142522771647e-07,2.905611590779661e-07,-1.8094160873335008e-06,-3.430625035071659e-07,9.104279425474984e-07,-3.745611698500802e-06,2.989422099237309e-06,1.938835402590895e-07,2.203230234800554e-06,-1.3515811713817039e-06,1.234899728783189e-06,1
9.782574956330179e-07,1.8662151129271313e-08,5.019199023356323e-07,-6.059276177711865e-07,-6.245382331561315e-07,1.0569362838270544e-06,-5.1103743327109654e-06,1.696509428148145e-06,-1.8818363267797036e-06,1.1190028426152059e-07,-1.6418954786797656e-06,3.9079577462473206e-07,1
5.965924073828544e-06,5.363155018312447e-07,-2.1780834680403284e-08,5.100961327886555e-07,-4.71884630173505e-07,8.333487285922392e-07,-2.447430401758049e-06,5.704793226153868e-07,-3.0150899695034206e-06,-2.2714690442851877e-06,-2.5099246194353545e-06,-1.9294815658834946e-06,1
8.593641591998551e-06,2.2743866852485437e-06,-2.733954158600617e-07,8.564195920814316e-07,6.863054177724454e-07,1.5042649853707398e-06,1.4769452679069986e-07,1.0299689562481789e-06,-2.6390983236040978e-06,-2.193569149538179e-06,-8.73781578031042e-07,-3.644599971013183e-06,1
7.326219717225657e-06,1.8882561002254969e-06,7.544140765716449e-07,1.2390092516265337e-06,-7.473831812846486e-08,1.7848637956411886e-06,-2.44393129394949e-07,2.3683096428790024e-06,-8.325742140771868e-07,-1.0552201732249924e-06,2.130368464342066e-06,-4.869937477569036e-06,1
3.7716421662047214e-06,5.49826320680242e-07,8.021324222086816e-07,8.857988497564893e-07,-1.6390782423811565e-06,5.032101482702529e-07,-9.922795315286839e-08,1.4924426958548719e-06,1.0302618497059072e-06,2.399098434013206e-07,2.280459225731437e-06,-4.424837051567901e-06,1
-2.2799343351948825e-09,3.1641215170707487e-07,2.0531616723125048e-07,-4.459624917710948e-07,-7.605221665212254e-07,-6.939346072248592e-07,2.5992254545396513e-06,-2.7712137859438515e-06,1.727042657892975e-06,1.7421463678602985e-06,1.0407480177217134e-06,2.64843207151602e-07,1
-3.2736002386233533e-06,-3.6334529343891893e-07,7.847331558848625e-07,-1.1593504821447713e-06,-6.233847611811904e-08,-8.70383824814813e-07,1.891910455753941e-06,-7.378650723912078e-06,9.525093726545735e-07,2.737139070102476e-06,1.4276333321185023e-06,5.197160266638091e-06,1
-6.831284015266546e-06,-1.897013254603705e-06,2.227377821688855e-08,-7.223722096379592e-07,-1.181768307274423e-06,-7.199775159029407e-07,-2.1161047330017157e-06,-7.629183575066004e-06,-1.4049728500893873e-06,3.476097975814177e-06,1.778466379434923e-06,5.932555655053538e-06,1
-1.050769455597442e-05,-2.811893977167918e-06,-2.001868634177936e-06,9.865004436264379e-08,-1.792716733489546e-06,-1.8554529945758842e-06,-1.5618957670015086e-06,-3.5812312890325816e-06,-1.869061116387902e-06,2.6396931035286582e-06,5.824130981174961e-08,6.009242059383664e-06,1
-1.0602634492921947e-05,-3.207882837499033e-06,-2.4262386130120282e-06,4.3300802482006026e-07,-4.6230057529252396e-07,-3.8910049638523625e-06,9.336031751131541e-07,-4.0077506750806234e-07,1.3699507319322187e-06,7.361380268780156e-08,-1.5774705606558575e-06,7.85230284600806e-06,1
-6.5616583280040546e-06,-3.3357249309600565e-06,-1.683343242977872e-06,1.9497661802451745e-07,2.2621021502980326e-06,-3.952665200488016e-06,6.807413634790538e-07,-1.0526180922722797e-06,3.834849917048077e-06,-1.0092789882057587e-06,-8.508710323147795e-07,8.440752629670862e-06,1
-2.123323168562977e-06,-2.824136395200667e-06,2.4636833198569386e-07,4.681859348818765e-07,3.7825697679269705e-06,-1.7858791185318736e-06,2.0843810067565925e-06,-2.408605031445572e-06,3.7888621180777164e-06,-7.005309418079865e-07,-9.702824318389612e-08,9.253548058987913e-06,1
2.072231056561572e-06,-2.5570539811911803e-06,2.0571668599934444e-06,1.442430696352201e-06,2.9868196700611574e-06,4.1434646922078994e-07,3.458607436897321e-06,-1.6438916509199172e-06,3.002102456506715e-06,-1.4436701552230065e-06,1.824424968529207e-07,1.403171862076682e-05,1
5.057041057902042e-06,-2.3746518114155752e-06,4.924157615096116e-08,1.3765773527894865e-06,1.4860637009636049e-06,1.19164098681479e-06,1.0513627427019268e-06,-1.0309971392588864e-06,1.3059143858400899e-06,-3.1912932877191015e-06,1.0501452090895652e-06,2.057731743696837e-05,1
5.6149466765244105e-06,-1.1252517998494146e-06,-3.339259776380956e-06,-4.2892631678166227e-07,3.415129281663254e-07,1.434706814617785e-06,-6.18353031313606e-07,-7.429080751484047e-07,-7.339190139794724e-07,-4.31824476026433e-06,1.1475654729069088e-06,1.943549549887473e-05,1
5.843033070187359e-06,1.3866385553057482e-06,-2.3430053298854696e-06,-1.323551666022687e-06,-9.924453051283912e-08,2.803299078376936e-06,1.715341885532399e-07,1.1068817019697675e-06,-1.6620713655677009e-06,-3.4141812698333114e-06,1.7310717319325463e-06,1.367510035792342e-06,1
4.899316231127175e-06,3.601766274725498e-06,1.9640861421734854e-06,2.666909094031954e-07,-6.02435657335811e-07,3.430097269625854e-06,2.3741212617758225e-07,2.81645450945703e-06,-1.9880899446725056e-06,-1.3768561474664299e-06,2.0096199079688186e-06,-2.397211849042291e-05,1
1.149827814035184e-06,3.228422370948387e-06,4.261488633428829e-06,1.2249967701320101e-06,-2.410219674813348e-06,2.3139126595813e-06,-8.640668993525521e-07,3.39056801958917e-06,-2.6589424649748616e-06,-1.584032164180319e-07,-9.343355671057053e-07,-3.686671861955065e-05,1
-2.10051496424355e-06,2.1611754010784147e-06,2.876894053066874e-06,1.0550209058308493e-07,-4.170539051137745e-06,1.3547960248746681e-06,-1.7195724039517302e-06,3.785883711969655e-06,-3.3857722386080394e-06,4.322887700867459e-07,-4.167503680952319e-06,-3.3393965602354284e-05,1
-1.2096863366061182e-06,2.2112351512295623e-06,6.520635820901024e-07,-9.200290883705338e-07,-3.7445271446899893e-06,-1.3493297188151657e-07,-4.35428847073736e-06,5.462981427894136e-06,-3.2588514606419387e-06,1.2087794569438342e-06,-4.902977786820861e-06,-2.0874625713226692e-05,1
2.349229958740683e-06,2.618463352397543e-06,6.482332221249757e-07,-1.7478756991059537e-06,-1.7759944139516292e-06,-1.7904201580228154e-06,-8.89560164542741e-06,7.37964569039401e-06,-1.6157227982332457e-06,1.7700307973348997e-06,-3.26204490462682e-06,-7.605102978890419e-06,1
5.111649334950628e-06,4.286632912028781e-06,1.8849786003281391e-06,-1.7374593572857258e-06,7.21839640260247e-08,-2.2642034171854365e-06,-8.800805535944194e-06,4.859872160100222e-06,5.747659806147513e-07,1.6833125708084363e-06,-7.031329224212024e-08,3.289476051607291e-08,1
8.106811028684632e-06,5.503036513185226e-06,2.5402083594255538e-06,8.175721145633433e-07,1.0179369020560357e-06,-3.3850212011701896e-06,-2.105404762269806e-06,9.262866009305578e-07,2.4424347287894994e-06,2.3156422323695217e-06,1.733320604508132e-06,1.3945390428971545e-06,1
1.0820765934329754e-05,4.874006595526931e-06,2.956233292564689e-06,3.131437063869338e-06,7.028581963888488e-07,-3.819762940128269e-06,5.8534508264591944e-06,4.961529452538549e-07,3.5973418902312243e-06,3.558581152640311e-06,1.2925176948625361e-06,-3.7224761406876705e-07,1
7.656229360962146e-06,3.6285825278385534e-06,1.3239019403447435e-06,2.0995008566905403e-06,3.985235577696985e-07,-9.252455013481793e-07,1.0555214493915572e-05,-2.1496999602697565e-06,1.6749872813816813e-06,1.5345169053588422e-06,3.363764306692987e-07,-1.2483335984284645e-06,1
-1.2056841819598538e-06,-7.157933007956355e-07,-2.419376392122649e-06,-5.926377234744615e-07,1.121432527357275e-06,1.8905136984606966e-06,9.530352206887833e-06,-7.983330912768158e-06,-1.664055608031647e-06,-2.42729356151496e-06,-5.63477159236546e-07,-1.5194398199584889e-06,1
-1.0474866449819161e-05,-7.98397788006439e-06,-4.136783845289375e-06,-2.2298178705682605e-06,1.5752840506485256e-06,2.2063193799214813e-06,4.37168385860325e-06,-1.0085567056365257e-05,-1.176925722097114e-06,-3.3139606627441762e-06,-6.940075479231336e-07,-1.6768872564123157e-06,1
-1.717075777214753e-05,-1.2060113306709308e-05,-4.300370994433251e-06,-2.3842983940325994e-06,1.8474671332487043e-06,2.405200335692654e-06,2.044792092844542e-06,-7.902560704647304e-06,1.9418868942186536e-06,-2.4200255846600802e-06,8.021539409380757e-07,4.750689931058148e-06,1
-1.879905689600616e-05,-1.0900411133007115e-05,-5.318945913437565e-06,-1.0585362984537514e-06,2.7078752789370576e-06,2.4488848427577246e-06,4.831795796950176e-06,-4.584511245490362e-06,3.1262477826470223e-06,-1.0434146852640308e-06,2.6068359983246674e-06,1.913776979035649e-05,1
-1.4339896979810622e-05,-7.2970442054868245e-06,-5.068705205335265e-06,1.2550209019910764e-06,2.774347230774794e-06,1.0072142279432543e-06,5.785859517798438e-06,-1.9232485040547376e-06,1.8234848179432604e-06,1.4339040372545538e-06,3.1942638205229337e-06,3.2588873546522336e-05,1
-6.051815038099209e-06,-1.562459252897803e-06,-2.460314066339525e-06,2.2940885700577516e-06,1.3058194295562337e-06,-9.098818530496833e-07,1.7237607659420918e-06,7.802597636309779e-07,4.154533780304911e-07,3.3323582895497463e-06,2.7260590314665057e-06,3.6220758213782045e-05,1
2.6283270763665428e-06,4.815473896495919e-06,-3.4486055521388136e-07,1.7860691008968299e-06,-4.086025624467581e-07,-2.1566313644257697e-06,-2.6837863053599164e-06,3.715248571078318e-06,-3.584160274424493e-07,4.165260160075716e-06,1.479366303628389e-06,2.617463862519605e-05,1
8.684939887598587e-06,6.1243938543483416e-06,-4.4302853105384936e-07,4.1455866979746544e-07,-1.3467618808427624e-06,-1.1374793766807194e-06,-4.436829252327994e-06,3.3053523861037256e-06,-1.6719127611792091e-06,3.0657212390487923e-06,7.471769437942841e-07,7.376092539445587e-06,1
1.096856871511669e-05,3.792441418495265e-06,-2.665996770659482e-07,-1.7725757844740327e-06,-2.28408282003219e-06,1.4516723262822525e-06,-5.575056778048363e-06,2.120469072817205e-06,-2.6693871129032578e-06,5.618520446147616e-07,3.6347674330791846e-07,-8.7426188567951e-06,1
9.070170499826727e-06,3.945336733786439e-06,2.3844848078755668e-06,-2.298166301858691e-06,-3.089205238760199e-06,2.057351236570232e-06,-8.151068314972293e-06,5.071574247962028e-06,-2.500630004385456e-06,-3.712207431661539e-07,-1.8464768020948625e-06,-1.6663438683616186e-05,1
3.5836739401084312e-06,4.228204879061731e-06,5.160659156254012e-06,-1.3220806839137357e-06,-2.3806725368546374e-06,9.257799928850026e-07,-8.778837423016278e-06,6.693072788749522e-06,-2.4432787974638027e-06,-1.6643313497193052e-06,-3.215923008046512e-06,-1.8436876853061783e-05,1
-3.0447681662358995e-06,1.430943461315181e-06,4.923296267811876e-06,-1.204508889325799e-06,-8.237679690806432e-07,1.9772791659331346e-07,-5.811134699695095e-06,3.915660996971495e-06,-1.6861990312107046e-06,-4.037546364890407e-06,-1.2172894471890318e-06,-1.5710562190029668e-05,1
-8.936935468727704e-06,-2.069725701733759e-06,2.773303785864631e-06,-8.231139800518448e-07,3.7342594942018467e-07,-9.961676163291783e-07,-3.924631212574608e-06,1.9221564377730635e-06,6.027932972523193e-07,-3.134625204139836e-06,8.86647114876322e-07,-1.079610173349855e-05,1
-1.1389578116227977e-05,-3.7708174268722003e-06,1.5756100754979461e-06,4.600368366869345e-08,4.0739502137453065e-07,-2.8753297997483113e-06,-4.0889913399816275e-06,-2.9649249257949835e-09,1.0851484684249076e-06,-2.2458326561827275e-07,1.0500897173030854e-07,-7.32811485566918e-06,1
-7.605144766747974e-06,-2.1866034709191286e-06,1.1469015538756735e-06,7.684263108618909e-07,1.8791524996513772e-07,-2.3999257205356855e-06,-2.844899523092844e-06,-3.855465547649154e-06,1.442005992998975e-07,5.500693072449278e-07,-2.1448749115120324e-06,-6.1240652205451775e-06,1
6.600601542693801e-07,2.919675358392112e-07,1.0163721811829489e-06,1.4522849566504566e-06,1.7311774469260816e-06,4.91696549117857e-07,8.579161612193969e-07,-5.192542782220397e-06,1.7589189700003456e-06,-3.931294799741348e-08,-1.807151352013347e-06,-6.724908386594308e-06,1
9.98551834925014e-06,9.626462984433812e-07,1.3772403353988623e-06,1.4403761679759762e-06,2.3428762950265703e-06,1.352681473533788e-06,5.168794780033024e-06,-3.4421174491413284e-06,3.5329816283932077e-06,-4.971602263201648e-07,-2.1263160743357676e-07,-7.241609866709258e-06,1
1.8586482646815453e-05,1.8234718465101467e-06,7.489755185403722e-07,1.594292099475919e-06,1.1210032218184506e-07,2.8834395126244e-07,7.792196232717864e-06,-1.6054089843960348e-06,3.0777667277145075e-06,-1.0194029589631136e-06,-9.144110640507901e-07,-5.353953480443353e-06,1
2.351571438013041e-05,2.7284252115493217e-06,-6.585086786128e-07,2.21409344131908e-06,-1.0376335370925792e-06,3.5162743601308893e-07,8.336946487519192e-06,5.92094570685494e-07,1.511265636406406e-06,-6.774476096755063e-07,-1.1790711852021114e-06,-3.038008494681809e-06,1
2.211890657782831e-05,2.322012117029597e-06,-1.4903045472500952e-06,1.9023486413462988e-06,3.330334319020669e-08,8.124616984083269e-07,7.705915987479119e-06,2.745226178656123e-06,-1.071632084919808e-06,1.8868358701159634e-06,2.882858337106698e-07,-1.423387180204994e-06,1
1.619364029235903e-05,2.2505839344547996e-06,-1.6265183801761028e-06,7.821252010167643e-07,3.734888295946185e-07,6.223023292406447e-07,5.723415088503638e-06,2.69815066690495e-06,-2.6781738115768066e-06,3.7119448126983676e-06,1.5340943153903218e-06,2.245448214554751e-06,1
9.227937123132126e-06,2.2610057738769117e-06,-1.2265246869606336e-06,8.107522603886841e-08,-1.699160115415826e-07,-4.2424367607125023e-07,1.8332100004681184e-06,-5.721307254187873e-07,-2.757761626185568e-06,1.0277877588565023e-06,1.925882277915698e-06,7.291749899464272e-06,1
2.3422667498900165e-06,9.374073145644725e-07,-1.1116026255856313e-06,-4.7187310338943513e-07,1.4935904320458395e-07,-1.9164719963732436e-06,-1.9285525043111153e-06,-4.0147672408824066e-06,-2.2620877480450214e-06,-2.4087108289641948e-06,6.229658635979151e-07,1.0597468702821574e-05,1
-3.5014902955101623e-06,4.283889841776904e-08,-1.4040310256853592e-06,-2.033903094962961e-06,6.221722021297032e-07,-2.0384644435873038e-06,-2.6014605754650548e-06,-3.069324697452545e-06,-7.570626499477695e-07,-1.599270951426242e-06,-1.5566237599127823e-06,1.1742780447883671e-05,1
-4.603571765324304e-06,3.4591884285904927e-07,-1.329673055418335e-06,-2.917554561074191e-06,4.843569405095917e-08,-4.1317369719371003e-07,-5.005641384039931e-07,9.875138167337118e-07,9.427661324857351e-08,6.057310388824096e-07,-2.065484815110517e-06,9.745356722509452e-06,1
-1.6359399141393734e-06,-1.5051672999505015e-08,-7.39312373113324e-07,-1.8785269612664458e-06,-1.2426290508265645e-06,1.8054483387283212e-06,1.2252795319712206e-06,5.598357681526143e-06,6.201794567226484e-07,-1.492692202265371e-07,3.05133568360928e-08,4.1291640256299465e-06,1
-5.150305522101411e-06,-9.830927092567224e-07,-5.006878718951302e-07,-1.1095695039601563e-06,-2.18052893295798e-06,2.830780494148073e-06,3.982264263674238e-07,8.844920386922325e-06,2.182545405222325e-06,-1.895932517840158e-06,2.3805667353112095e-06,-8.90761411720736e-07,1
-2.1008130478714245e-05,-2.982219209573442e-06,-1.3955434030019173e-06,-8.172229126063741e-07,-1.3023315225904233e-06,1.4914115840251163e-06,-1.3973795071900448e-06,6.254605121117222e-06,2.603033538391537e-06,-1.4149977189293722e-06,2.166729101197129e-06,-2.462435314334298e-06,1
-4.403623847657603e-05,-7.243837617897404e-06,-2.2735889729880664e-06,-5.10704803702696e-07,2.1428853332207522e-08,-6.495356767830384e-07,-2.8553121854988436e-06,-1.5103230264757721e-06,9.522134353637634e-07,-9.152489736195326e-07,6.532972649420866e-07,-2.1838549881544854e-06,1
-7.618783326914687e-05,-1.3666679037484942e-05,-2.8181672952250406e-06,-1.1049945169939589e-06,-7.78215053507403e-07,-2.2394580637286088e-06,-5.849786603881233e-06,-1.171937700370405e-05,-1.8646205009388733e-06,-3.617109921955354e-06,8.694949868022228e-07,-8.523782260621448e-07,1
-0.0001103039512269815,-1.8889132775255757e-05,-3.593782536091891e-06,-1.1471345037530368e-06,-1.8711750637021004e-06,-2.837635369960859e-06,-8.376140902335834e-06,-2.0581727860268044e-05,-3.7189703080101464e-06,-5.6893676102973544e-06,2.0287349985552583e-06,1.2986129220555482e-06,1
-9.204180936325099e-05,-1.1989994155646333e-05,-1.8066274151640485e-06,2.9177513216428173e-07,-1.017866745771345e-06,-9.356370782222981e-07,-5.137724813835782e-06,-1.4524227044278135e-05,-1.4792276873639914e-06,-3.9561052566719836e-07,3.274847407785922e-07,2.6312201968791604e-06,1
1.0758833618078749e-05,7.557876355370178e-06,3.911389583012558e-06,2.084271612344406e-06,1.3034063045166356e-06,2.3285742431746886e-06,2.023612154699492e-06,7.050125710166018e-06,3.0061899091258215e-06,8.057958648179859e-06,-2.1968497586092904e-06,1.8926825342973847e-06,1
0.00011285152994199368,2.0234639033593534e-05,8.192614831031404e-06,3.8059643980103832e-06,4.472185441667185e-06,3.4771599290659455e-06,6.088547571498791e-06,1.973395981724012e-05,3.9915619268229384e-06,9.268922668935255e-06,-5.995481576272684e-07,-9.314694371827256e-07,1
0.00011700187789125662,1.5865658356575803e-05,6.092670708409649e-06,3.751379464522006e-06,5.490731240258952e-06,1.7183587315081806e-06,4.288990782446395e-06,1.0483229379234771e-05,1.2758188025905136e-06,3.45658919352375e-06,9.894111806369124e-07,-3.715872084327609e-06,1
5.853373614415694e-05,5.642027974703618e-06,4.4565817775380155e-07,8.855548690380185e-07,1.9830687449756166e-06,-1.0251804153238568e-06,-8.347781188683562e-07,-5.599716227550202e-06,-6.338309019222763e-08,-2.2167624857742032e-06,-6.473760448512186e-07,-3.284660871648596e-06,1
2.7483007424472083e-05,2.4726489623273615e-06,-2.2694413292260347e-06,-1.5232267455638707e-06,-1.911150256453047e-06,-2.0837372895407603e-06,-4.383056954571055e-06,-9.427408708467031e-06,5.455919130574781e-07,-3.4381233354619614e-06,-5.76766306797279e-07,-6.70090497503968e-07,1
3.9586042517335325e-05,6.263121781509748e-06,-4.798740369931083e-07,-7.188208178453661e-07,-2.179218792655256e-06,-1.0426027578253965e-06,-3.1754737559619517e-06,1.9920459016886116e-07,-4.2141728394359673e-07,-4.3316046462455465e-07,3.45656885453762e-07,-8.887903567419609e-07,1
5.365457595786155e-05,8.148217957716656e-06,2.133593286173545e-06,7.182772225637464e-07,-1.4700813879313924e-07,2.9826385229591686e-07,1.1711260241778092e-06,9.520907533576928e-06,-2.4155885538641605e-06,2.886999685529988e-06,-1.8902393001972231e-06,-5.099913850980677e-06,1
4.500359198496181e-05,4.937850781251889e-06,2.998621227631379e-06,-9.045015575025043e-08,1.1042293533569405e-06,1.0457890290843201e-06,4.6011033429544345e-06,9.892738425377639e-06,-2.673948801205138e-06,4.018307619751638e-06,-3.849849783538981e-06,-8.238440131996664e-06,1
2.398055029893495e-05,4.5093031582661337e-07,1.7505401364338807e-06,-5.361241096426908e-07,7.715290478943261e-08,1.7910014964716096e-07,4.717539929446019e-06,4.479485516737321e-06,-1.8369989951305557e-06,3.128459073827769e-06,-2.6494637326728685e-06,-6.432772284915168e-06,1
5.132554469327159e-06,-2.489790493916045e-06,-7.949666789016798e-07,1.6617397045545228e-07,-1.4765975750854071e-06,-1.5618361382524809e-06,2.9319204060488793e-06,-1.4465391103122683e-06,-9.64788519130915e-07,1.5754269022379122e-06,-5.64310798463732e-07,-2.454143457627216e-06,1
-7.968125708205817e-06,-3.268597298821138e-06,-2.60024674912631e-06,-8.655712677548704e-07,-1.3844940677626511e-06,-1.3146781854573822e-06,1.7799409333244198e-06,-4.279624559329556e-06,8.485750329470862e-07,5.436451200941529e-07,1.1159870796181407e-06,4.4426324340822255e-07,1
-1.2104638937901717e-05,-2.668366990365363e-06,-2.909468421254785e-06,-1.710715097289137e-06,1.1353165088730948e-07,5.280807601415398e-07,1.7674925924019648e-06,-3.3972177611904403e-06,2.145364031446169e-06,-5.438572137577461e-07,2.3881306946389616e-06,3.4850181629923166e-06,1
-1.3482971815465617e-05,-2.7403184810784127e-06,-2.1259599242837386e-06,-1.1504280550592007e-06,1.023021749207612e-06,1.884851876959006e-06,1.4895015412514323e-06,-7.186947165602484e-07,9.161895536871437e-07,-1.1536000066142076e-06,2.5851826768859385e-06,4.830283818887191e-06,1
-3.628552543167131e-05,-5.104686633272506e-06,-1.36113474716452e-06,-9.448047233866395e-07,2.19340040684487e-07,1.8329861075706484e-06,-2.0410829865379732e-07,2.9044339941486924e-06,-3.766505033534511e-07,-1.6321818280151667e-06,1.9057830053361451e-06,1.2646961520716594e-06,1
-9.439481279041453e-05,-9.187032324853496e-06,-1.835067992230107e-06,-2.3020531360767482e-07,-2.0918131845628832e-07,5.375817184307303e-07,-1.1676924560086376e-06,4.545101902569473e-06,-3.1695573164431014e-07,-3.881490804368971e-06,1.2275936984204893e-06,-2.9990123015065368e-06,1
-0.0001563395302094113,-1.1511782007339108e-05,-2.573523880751674e-06,1.3716407350070592e-07,-4.1555058900847986e-07,-8.880647254586274e-07,-7.314859640601437e-07,1.970219267827368e-06,1.563220982686131e-07,-6.124025731998819e-06,9.65962242374393e-07,-4.434241169701229e-06,1
-0.00017568222435371521,-1.2461810613339637e-05,-2.9140533066099107e-06,-7.927142713919118e-07,-3.0292946129711422e-06,-2.4135685850737676e-06,-1.5154329423899877e-06,-5.527200848350844e-06,1.5828938410747343e-06,-7.499903138812262e-06,3.738331701111904e-07,-3.7994129856692704e-06,1
-0.00015195757340955338,-1.9194297268875636e-05,-3.9750493324114995e-06,-1.6319358557732857e-06,-5.284998205655258e-06,-3.4298666091682583e-06,-3.3367834549956206e-06,-2.0215798712120624e-05,4.578247864690482e-07,-8.92261346818273e-06,-1.5807411947344852e-06,-5.589307390981034e-07,1
-7.4946912467961e-05,-2.276533650103018e-05,-4.084475883118319e-06,-1.5489553232654808e-06,-3.432406606512588e-06,-1.801455959594483e-06,-3.6968469131845284e-06,-2.688131307562494e-05,-4.150020918900657e-06,-7.073999001333514e-06,-2.522117038681966e-06,3.2067498284876894e-06,1
9.28709823519104e-05,-1.2216181550508931e-06,1.6029846755405164e-06,9.819612298423852e-07,1.4183925924964124e-06,2.3876205213140853e-06,-1.1203066684761339e-07,-5.478089294994761e-06,-3.5661605262259084e-06,-3.9963575326036273e-07,-4.429502730880908e-07,6.657279247139119e-06,1
0.00026066196151334976,3.320451792848479e-05,1.0448950981583918e-05,4.430625761936066e-06,5.243713870617888e-06,5.132323188828571e-06,4.084179337547985e-06,2.3711771501643313e-05,2.5950189569103854e-06,6.1615474514144664e-06,1.0692459502150946e-06,1.3027541110753108e-05,1
0.00026596078961762815,4.4074470206389096e-05,1.1995985080623034e-05,4.616305754470507e-06,4.176372769855353e-06,2.9356883682240494e-06,7.922813184023263e-07,2.7386761423032588e-05,4.953138138883434e-06,7.042102055812026e-06,1.920385554602648e-07,2.0195494949593083e-05,1
0.00012815379071137023,2.6434122718486833e-05,5.712584877227643e-06,1.2511118087965367e-06,4.4726004571378593e-07,-1.2186684050490743e-06,-7.119447782252677e-06,1.1555672084010934e-05,1.7706160283986702e-06,3.066927747500617e-06,-4.957942286305837e-07,2.3882584156933565e-05,1
-1.0027048716115215e-07,4.739304156706108e-06,4.1828965914010915e-08,-2.5022214995198403e-06,-1.4917374925394216e-06,-2.4090703518277816e-06,-8.554747312571166e-06,-3.5570649745710493e-07,-2.3995377872266093e-06,1.055782681411311e-06,-6.158753083529835e-08,2.1096056319709234e-05,1
-4.982207587718385e-05,-5.749412015098092e-06,-2.6388776184256563e-06,-3.127280258583221e-06,-1.6508610142364657e-06,-7.149966895635453e-07,-2.9448594685284426e-06,-3.6711297795775435e-06,-3.4881813433765825e-06,2.5407312765054267e-06,9.70280958096796e-07,8.558873535531055e-06,1
-5.11686202461572e-05,-9.223185085280996e-06,-3.976215235692527e-06,-8.91584473794858e-07,-2.3385290096612954e-07,7.394404163894528e-07,3.5447321605716444e-07,-5.389671193241823e-06,-5.719921752001108e-07,2.557972449307424e-06,1.4968428926677912e-06,-9.270153991866013e-06,1
-3.990785855772934e-05,-1.1029271617953595e-05,-4.2411318630922165e-06,1.463897774640973e-06,1.6641664552332382e-06,5.071038162159578e-08,-9.338437698044864e-07,-6.6959547725114315e-06,1.8695039558286893e-06,1.679337878223957e-06,-1.7114709103768095e-07,-2.3798539115583615e-05,1
-2.271506674253469e-05,-9.30808584710651e-06,-3.3160868868002204e-06,2.843497909015337e-06,2.1061933553211237e-06,-8.137224196463385e-07,-4.2127236491009816e-07,-3.7206621091902105e-06,6.077664006627462e-07,3.693667471229415e-06,-2.8671756144798222e-06,-2.9961842758302485e-05,1
-4.232355290053762e-06,-5.172640864379087e-06,-2.132057995481156e-06,1.921521061144255e-06,2.1355360312801825e-06,5.0504376489020576e-08,2.7772513065402243e-06,1.606284194188332e-06,-8.818964224540415e-07,6.559036226700541e-06,-2.6902298105535433e-06,-2.5011056328622232e-05,1
-1.139762259473489e-06,-3.3136386075971196e-06,-2.072023756371203e-06,-6.090001850994865e-07,2.0162079368708573e-06,4.959240542457604e-07,5.355070160599978e-06,2.944447601792414e-06,5.020206660405455e-07,6.044640622396926e-06,3.700067223628025e-07,-1.2883370880317968e-05,1
-1.5008220202300634e-05,-3.978858014847291e-06,-1.8461208467322687e-06,-2.2523843837678227e-06,7.287590970127236e-07,-8.538958793009703e-07,7.438741099287046e-06,-4.4659288392075134e-07,2.1835455916130624e-06,1.8066574481181304e-06,1.7028051018670185e-06,-1.4058754113042951e-06,1
-2.885090315269887e-05,-3.740434809567818e-06,-3.815192104466361e-07,-2.950373657511914e-06,-1.307919391472525e-06,-1.8587499145343532e-06,8.199564679659993e-06,-4.623329622641274e-06,1.6704346789802153e-06,-1.2908158686509892e-06,5.172368111621542e-07,4.730853612869146e-06,1
-3.0456314142840458e-05,-2.4067992356888837e-06,8.038823379395156e-07,-1.95451970895869e-06,-2.1873341838127097e-06,-7.857916034546948e-07,6.238040684417855e-06,-7.0404202675902315e-06,7.144150983387516e-07,4.186018843195805e-07,-2.1557099792178067e-07,5.031317440499164e-06,1
-2.084991549178503e-05,-1.947513165095674e-06,1.6333175177221454e-06,1.0452430852787651e-07,-6.209060094075765e-07,1.692483766351692e-07,3.190069974225822e-06,-6.93521849762764e-06,1.2161999501326813e-06,2.359710371835929e-06,-2.7205290738135166e-07,3.107200465133482e-06,1
-1.0022822777197864e-05,-1.1306545908830844e-06,1.9881594557575938e-06,3.009953548834345e-07,8.402201670646221e-07,-9.428842775098157e-08,5.323597937975361e-07,-4.76158812336602e-06,1.3927636741352989e-06,1.6534356198446677e-07,4.19093133050194e-08,-1.2165597582346864e-06,1
-3.3856746004003288e-06,1.4540857517323462e-06,9.7698336694433e-07,-5.815933708718808e-08,-8.116711799370789e-08,9.501485664333946e-07,-1.2075908816888165e-06,-1.7257298666808446e-06,5.9745410183232564e-09,-3.5296743729438023e-06,1.5133987948014302e-06,-9.124280338006148e-06,1
1.6620393545620493e-06,5.025442758205433e-06,4.1061833574200314e-07,1.7992474959117416e-07,-1.2123762716571392e-06,1.5448014392527513e-06,-1.1439784650756948e-06,1.4466058543150176e-06,-7.55580997258001e-07,-5.7356967498862725e-06,2.42184391605763e-06,-1.391819444181677e-05,1
5.13050326675503e-06,7.797540297189642e-06,8.749795801890335e-07,2.712638289002637e-07,-1.0210287783124718e-06,-2.740776758316198e-07,-4.793160547272077e-07,3.7236005213836694e-06,-1.03884287240448e-06,-6.7068612767871475e-06,1.463596574755039e-06,-1.2273908127399987e-05,1
6.801978819968673e-06,8.319310765521943e-06,1.154066632756104e-06,1.0722455810843979e-06,-1.3750821498403178e-06,-1.1779231472414501e-06,-2.0460604844108554e-06,5.067233813931497e-06,-2.6439865637843873e-06,-8.544307090983488e-06,1.8203396841130262e-07,-8.249050399387353e-06,1
7.382199045972917e-06,7.235287413134586e-06,2.142096071193803e-06,1.238364600532831e-06,-2.427631967238706e-06,-5.273363540579901e-07,-4.485807945405551e-06,7.161358560163409e-06,-3.6492772100617856e-06,-1.1144888591032663e-05,-9.7534527724347e-07,-4.189606051642448e-06,1
3.2801208426071856e-06,4.168590004655056e-06,2.037401615037243e-06,7.242241395059098e-07,-2.0237654006637438e-06,1.0132822336270764e-07,-4.4311886313364525e-06,9.758945537958338e-06,-1.9305718911667465e-06,-1.042529492468135e-05,-2.0851604894044774e-06,-1.6246202760743923e-07,1
-3.226792324372479e-06,-1.807613519793882e-06,-7.001820448274053e-07,1.458500827145698e-06,-4.494438712170021e-07,8.472919263800887e-07,-4.097858116985272e-06,1.1947671725442069e-05,3.5701671605974627e-07,-5.304701967429879e-06,-2.50526080677686e-06,4.7349645326569936e-06,1
-2.919272468115568e-06,-7.608990122908306e-06,-1.7746612668810337e-06,1.6650747001077503e-06,7.99450066568658e-07,1.6555113155186128e-06,-6.097380697848877e-06,1.3498664502643645e-05,1.6669498167374603e-07,-3.368536929521678e-08,-1.56454689358908e-06,9.2840999316906e-06,1
4.472554496766381e-06,-9.327280263794418e-06,-7.005717573313925e-07,-3.5763083186243217e-07,7.987620138492463e-07,2.1567361761865255e-06,-6.896030434800876e-06,1.182560891911754e-05,-1.2168933673490554e-06,2.9436693360173346e-06,7.536120629428763e-07,1.1564781061270309e-05,1
1.2098711432228794e-05,-7.003796605977706e-06,-3.874867997167668e-07,-2.877854790453754e-06,-2.5618506712796213e-07,1.5890723783822487e-06,-4.053976578562335e-06,3.3997252289911855e-06,-1.463817015631905e-06,5.917802896720351e-06,1.3518503820607093e-06,1.4716066068659984e-05,1
1.660984973494986e-05,-3.4185312598906174e-06,-4.861525236030341e-09,-2.4514801276301525e-06,4.673714770458631e-08,-4.248500322143491e-07,-6.766714215453576e-07,-1.1572612340846923e-05,-8.410220623170164e-07,1.1239741135444826e-05,-7.834141047863038e-07,1.9674988539461387e-05,1
1.664122794196781e-05,1.703881220090103e-07,3.0357439560833114e-07,1.7711564787991725e-07,1.46971219462811e-06,-2.4121974359045665e-06,1.5364146413893777e-06,-2.250403055242873e-05,9.024846027080665e-07,1.5628934693714985e-05,-1.8527596311000664e-06,2.413635007124892e-05,1
1.1077607610219452e-05,2.847341683879932e-06,-1.9832795511665936e-08,7.016853350303473e-07,1.4347453691449133e-06,-2.0522851597632913e-06,3.544931601852418e-06,-1.7696493050560437e-05,2.963927281555035e-06,1.3242981567389671e-05,-1.152593034022419e-06,3.100807888416044e-05,1
1.8557819697338484e-06,2.3894831420230315e-06,-6.738325563438492e-08,-3.0793213973792675e-07,1.1165941876882581e-06,2.531678363842241e-07,4.490314005444418e-06,-4.589576926128954e-06,3.431506489671551e-06,5.471644580550331e-06,-2.0548880505400534e-07,4.003014349595745e-05,1
-6.493634863747836e-06,1.0919092052258121e-06,-2.5185025783109237e-07,-7.858362693301272e-07,2.31665158291144e-06,1.6094154837870295e-06,4.496987272703081e-06,4.385756776611047e-06,2.5963931130833524e-06,-6.487378932545741e-07,1.26434026554808e-06,4.16290032354371e-05,1
-1.0900756913901145e-05,1.843514048654637e-06,-9.466370735216275e-07,-5.154381464385378e-07,2.9617950656679473e-06,1.5373508901578129e-06,4.134097399772742e-06,6.668326514167433e-06,5.526321011529899e-08,-2.58424907877791e-06,2.259528897877986e-06,2.879888257411638e-05,1
-1.2631468394201136e-05,1.8030497281916104e-06,-2.4956108551235825e-06,4.6541717976914623e-07,1.1876555958841381e-06,8.249890529241014e-07,2.595718926210515e-06,-2.1013740640626854e-06,-2.487952361376287e-06,-4.035082112596986e-06,2.3750098187377585e-06,6.515319790247958e-06,1
-1.3490079346772511e-05,-1.813597035036711e-07,-4.11323559333214e-06,5.887733975311944e-07,-6.915840314959895e-07,-6.278182935692133e-07,1.5843517174368353e-06,-1.5993290546629742e-05,-8.788786098179858e-07,-7.010756238819514e-06,2.6778347994998123e-06,-1.2365993220450622e-05,1
-1.014639946282022e-05,-2.0651216920016355e-06,-3.143065142019746e-06,1.6103597148044687e-08,-8.313049273975788e-07,-1.4658187885261883e-06,1.2062448094420972e-06,-1.683250566472252e-05,1.4850616481359858e-06,-7.480669815041175e-06,1.8700945596073255e-06,-2.2084232821432557e-05,1
-8.626646940788141e-07,-2.348793344766457e-06,-4.758352943399499e-07,6.532097152866437e-08,-7.052612731688966e-07,-8.648274379018599e-07,1.6731209375020353e-07,-4.525516678197567e-06,8.916513899160801e-08,-3.819788893886076e-06,-5.802877225066785e-09,-2.8276574075187085e-05,1
7.94650379361284e-06,-4.5586553100180615e-07,9.69866713684004e-07,2.0001015836948818e-08,-5.7010520032296e-07,-5.908321798912472e-07,1.1304357016242519e-06,6.239376632763916e-06,-1.2180826879005004e-06,-3.6719099615813873e-07,-5.521376845394216e-07,-3.5019448211387816e-05,1
1.000465051952802e-05,1.4792877124689287e-06,1.668157398038996e-06,-1.6851267610668283e-07,-2.0629481134035214e-07,-1.3760910253390796e-06,3.124009178901283e-06,1.0092486592755066e-05,-2.3794007756245686e-09,5.171005923359747e-07,-5.828814108544093e-07,-4.2617695237874475e-05,1
6.503359891756543e-06,1.7553867513183362e-06,2.6267276327680586e-06,2.859944029822046e-07,-9.018304596788159e-07,-2.0456178925325826e-06,1.5609962712233777e-06,1.0729788058421615e-05,1.4800919062998925e-06,-3.320663406175527e-07,-1.391865672320985e-06,-5.176924572239918e-05,1
2.0989998290434967e-06,1.6706932269686302e-06,3.5804131278099722e-06,1.2729288984935184e-06,-2.2254754746728413e-06,-2.1670105640078337e-06,-2.2601742429624746e-06,9.808658439156352e-06,1.623527415425123e-06,-1.6472249588130375e-06,-1.7133172941443706e-06,-6.071995377480167e-05,1
-2.2588853564732487e-06,2.179225804775961e-06,3.502413283186825e-06,2.1672578243191894e-06,-2.5959542251447622e-06,-1.6313567224969535e-06,-4.674645505203412e-06,7.596191297263483e-06,1.8177824595725445e-07,-1.2119131853593762e-06,-1.9026047096638882e-06,-6.73862158864772e-05,1
-5.932231163293102e-06,2.1520012819131004e-06,1.542274462206726e-06,2.2045176786856844e-06,-1.698580862257357e-06,-3.9267477467004757e-07,-4.1995555342917675e-06,6.0160673347081324e-06,-8.212275388023111e-07,1.5485526469316476e-06,-2.647328870293407e-06,-7.229752203306649e-05,1
-5.835608746838693e-06,9.820348974769415e-07,3.9585843713178265e-07,1.4002034946899722e-06,-5.107775190130835e-07,7.757998922014972e-07,-1.124684806147983e-06,3.2328941258125974e-06,-2.7709410413638756e-07,3.4466994728847697e-06,-1.7432475771984336e-06,-7.514942590625771e-05,1
-2.731064614945984e-06,3.0404733593834844e-07,1.5096866221008373e-06,-3.447669842483584e-07,-6.505686235396296e-07,2.255987765712698e-06,1.0178926607565365e-06,4.650587950141274e-08,2.5191900422740736e-07,3.0338057783400347e-06,-1.1655663462374447e-07,-6.135309014916032e-05,1
1.4518990367303545e-06,3.951432432931394e-07,1.9338201066167907e-06,-2.516983698622426e-06,-1.6537673036399912e-06,4.401619373873673e-06,8.133994035980813e-07,5.81635708360832e-07,-1.5810404757856668e-07,2.3274191023338208e-06,-3.0572518078094565e-07,-8.344277355644274e-06,1
6.1885636842512235e-06,6.283913404106157e-07,9.655249162652004e-07,-2.0594180525183088e-06,-4.40171150199796e-07,4.512918751519187e-06,2.998812317307356e-07,7.139969018818385e-07,-1.5816874097200998e-06,8.665692302085894e-07,3.570773658571722e-07,7.565280546524551e-05,1
9.693284594356287e-06,1.049385522016975e-06,-5.966114360996362e-07,2.2869524540085338e-07,2.7296749406593292e-06,1.6633619705499145e-06,-1.1924621394063903e-06,-2.4656942630381385e-06,-2.690670963119414e-06,-1.4199704272919182e-06,1.6495539733385214e-06,0.0001537821745839565,1
9.583448251782378e-06,-3.752788524710265e-07,-2.4135811492163756e-06,-2.3019646682531155e-08,3.365044186859781e-06,-3.879174004353776e-07,-2.8151579969647873e-06,-5.453389137063981e-06,-2.1470747301574124e-06,-1.5740953857772662e-06,1.1811594420393505e-06,0.00018901445259847697,1
3.7875189065652195e-06,-3.818197975686908e-06,-3.3055383535234313e-06,-1.8250246412634012e-06,1.6783168432979736e-06,-2.658052216203872e-07,-2.8259299143139674e-06,-5.917026671620031e-06,-5.551105917966277e-07,-3.3142826185759983e-07,1.7441647040892523e-06,0.0001566860695056488,1
-4.391109325507714e-06,-5.363839554879099e-06,-3.5217348832769375e-06,-2.127271988518907e-06,9.951023693702616e-07,-4.205688660929822e-07,-3.1686508480088196e-06,-3.534107041960158e-06,1.844825473836363e-06,-5.243664797335602e-07,2.809650735782037e-06,7.998039109676324e-05,1
-9.31285805854237e-06,-2.9934925464561917e-06,-2.5493306337663886e-06,-1.0823811923486987e-06,2.0400558919690967e-07,-1.2585185378218487e-06,-2.8332927608266064e-06,-7.118473500597782e-07,3.7232471515645778e-06,-1.5169713677362345e-06,1.3635310478886598e-06,1.4654103417108274e-05,1
-1.15476253335298e-05,4.443743357335927e-07,-1.2028348248768054e-07,-2.027304081193109e-07,-3.559769469056544e-07,-1.8275437712958088e-06,-3.60000901669982e-07,1.2206083451468193e-06,2.641119669233916e-06,-1.2401095415034734e-06,-1.1338747512866576e-06,-2.138183518956373e-05,1
-1.2197601544026988e-05,5.925398791934117e-07,3.3081936716521227e-07,-1.1736008415735103e-07,8.538090730106651e-07,-2.5259664491351053e-06,1.2087583115072667e-06,2.2288461255836558e-06,-4.507116803546704e-08,-1.3556596671785875e-07,-2.650836023561493e-06,-4.110523447140068e-05,1
-9.043893337359813e-06,-1.9884605871056635e-06,-1.6992862256674796e-06,-3.4897643555636817e-07,1.0885866649058958e-06,-3.0075582462722954e-06,6.104566311173393e-07,1.045208024435738e-06,-1.5849110285836388e-06,-3.5278175138277695e-07,-2.229530301084663e-06,-5.173927293415582e-05,1
-1.4765347788605176e-06,-3.1439077867626665e-06,-2.6497894729076127e-06,-6.743617389527574e-07,2.7009605349055886e-07,-2.2128357747292274e-06,8.712396046632233e-07,-1.987247600007937e-06,-2.7027050790842034e-06,-1.1264753808404038e-06,-1.55012345268824e-07,-5.761965134331562e-05,1
7.947175036041503e-06,-2.073682393341542e-06,-1.5850318420135256e-06,-3.4722879064684616e-07,2.0441785805222896e-07,-3.719579921323585e-07,3.827734884803371e-06,-4.407098110015386e-06,-3.326436276647293e-06,-8.087994493449959e-07,1.7449568435100418e-06,-5.9764288898017616e-05,1
1.3663947484062238e-05,6.604735929059064e-07,5.585563163714701e-07,6.465999199781982e-07,-2.3320364837209553e-07,1.6180831363363202e-06,6.211444700337759e-06,-2.901824259259962e-06,-5.315416496936352e-07,-6.948877405511455e-07,1.618332492162623e-06,-5.7733558380162404e-05,1
1.1949629238312238e-05,4.559856792323139e-06,2.7312502226986714e-06,1.3633949427881407e-06,-1.3164545061227478e-07,2.5770650183382154e-06,6.591300034522229e-06,5.283435018163846e-07,3.1915027718664802e-06,-1.0653161994994002e-06,1.8102682447586504e-07,-5.301591797968154e-05,1
6.7789479669148745e-06,5.620148519205548e-06,3.337780767812707e-06,2.187146858476057e-06,1.1741625743757708e-06,2.185551378958711e-06,6.134393031875807e-06,9.404783004011383e-07,2.3964005183972047e-06,-2.980199831080489e-07,6.44155492252388e-07,-4.4040381511492786e-05,1
1.9420437312184097e-06,2.70687420490976e-06,2.371017452126441e-06,2.565880414833722e-06,1.0311651634927304e-06,1.3197677147055493e-06,3.1078447811482187e-06,-4.7851006889326194e-08,-6.022628740310616e-08,1.5106023003697804e-06,2.3604529566175765e-06,-2.860030140042849e-05,1
-4.052172842037026e-06,9.746398337456307e-07,1.2223666070858254e-06,1.9753045225324056e-06,-6.651445043918222e-07,4.3919087190307766e-07,-4.719513979576098e-08,2.0729994161927993e-07,1.2643244137822037e-07,3.080528711428584e-06,2.053523713768421e-06,-8.89719410650638e-06,1
-8.154295528774177e-06,1.965398478287583e-06,9.755259619541232e-07,1.498292676956138e-06,-1.803475541587035e-06,3.1577124217483123e-07,-2.521347055847803e-07,1.246533899466192e-06,9.718403537427584e-07,3.1297250205719704e-06,-2.3848885895760553e-08,7.367013055075415e-06,1
-6.3762491077924124e-06,2.673696844024162e-06,1.4287764795800961e-06,1.0689914417942467e-06,-2.6878418517161373e-06,7.417433287061486e-07,-1.1269927592956565e-06,2.223816592930783e-06,3.946159234125163e-07,9.365289031214956e-07,-1.8938392006714293e-06,1.566810478988562e-05,1
-3.3374391017713843e-06,1.7804901640983696e-06,1.4155149330752332e-06,5.359633424040408e-07,-3.516431309452738e-06,6.201826019446339e-07,-3.4418963859301916e-06,1.5944844492244554e-06,-2.0165917268781806e-06,-2.4103709029169372e-06,-2.644818696918209e-06,1.9161058998117306e-05,1
-2.673513520687321e-06,-1.0465875205616613e-06,8.457858924075536e-07,1.0521526537354202e-07,-2.6269707714790958e-06,1.9531598414462682e-07,-4.498886795676787e-06,-1.8450969863112628e-08,-4.0698960171766e-06,-4.001366956566105e-06,-2.4273322665917063e-06,1.9572958330864594e-05,1
-1.5408570494799575e-06,-4.385148436607483e-06,-5.671125428341675e-07,-2.9914401469656026e-07,-1.0752854217144611e-06,-7.887039718350538e-07,-3.9478289532194485e-06,-2.2426296711216488e-07,-2.5557158762920565e-06,-1.0870730312065209e-06,-2.124225025285594e-06,1.753904103785233e-05,1
2.1873094315857684e-06,-4.999184277048799e-06,-2.3050825731512614e-06,-6.223173912151958e-07,-1.0330463184599766e-06,-1.4568820091197735e-06,-2.90846024404509e-06,1.111998125565231e-06,6.044804015783646e-08,3.828615550001231e-06,-2.3942364567161096e-06,1.5081230728881639e-05,1
6.837247039385539e-06,-3.1435890691915225e-06,-1.8475436518178662e-06,-1.9106566257665236e-06,-3.9081839725818105e-07,-4.794809133145034e-07,-2.9128039722120978e-06,2.081961633220504e-06,9.518229117013093e-07,5.738451227254248e-06,-2.15628174121399e-06,1.156818122950843e-05,1
8.549243106451766e-06,-2.049774644248854e-06,-4.850881806236399e-07,-3.4422555720249445e-06,2.743915505133574e-06,1.0909157803700066e-07,-3.806363712637401e-06,1.2130324380297762e-06,1.924119076912546e-06,4.560116321821021e-06,-8.274174888063519e-07,8.0677908263044e-06,1
5.127596588843353e-06,-1.8139726543066728e-06,-8.844918343129072e-07,-2.621735934270599e-06,4.878210524309684e-06,-1.9615505091277517e-07,-4.856131697319611e-06,-1.1271303972210894e-06,3.4288167063215383e-06,1.253515951269498e-06,7.881169553901069e-07,9.087523250789776e-06,1
-1.552623893158298e-06,-4.315960004992441e-07,-1.3732743652519765e-06,-6.646736788453048e-07,3.0845376028070264e-06,4.450661534989014e-08,-4.078991596212412e-06,-4.107648687103745e-06,3.4800631522819325e-06,-2.608170766067834e-06,2.5510179825707727e-06,1.3612899690241193e-05,1
-6.808170697017652e-06,1.0254374717557675e-06,-5.830603190429952e-07,-6.269623744749671e-07,7.673796677638028e-07,-7.096973942211047e-07,-2.6032865235914433e-07,-4.84209722911964e-06,1.8110548132414618e-06,-2.8581965318286356e-06,2.830971239494884e-06,1.5207731305969634e-05,1
-7.0141802295980144e-06,1.5110485382917445e-06,4.7649897028122884e-07,-1.4747970460339621e-06,5.165311611377362e-07,-2.885425175466625e-06,1.2201683938523532e-06,-4.4169878577973076e-07,2.0819522234651962e-07,4.553006370356709e-08,1.7701974248097266e-06,1.1897189435094559e-05,1
-3.288427276398037e-06,3.0907716485205557e-06,4.646562023400089e-07,-4.30422634302307e-07,-8.639454496310054e-08,-3.6184382516791945e-06,-1.043177616879461e-06,4.117577167736727e-06,-5.532534974799236e-07,1.699975958941952e-06,9.858000636001634e-07,6.022099950261415e-06,1
5.51546613979811e-07,5.361796506598406e-06,-2.237128726326003e-07,1.1729962456976893e-06,-1.4854997506206494e-06,-1.7997502693433842e-06,-2.2719563042240414e-06,3.164204328644946e-06,-9.811547951351725e-07,7.555961247101751e-07,-7.64089958821208e-08,-3.2177407973153993e-07,1
2.733920191663985e-06,4.7900469535769805e-06,1.1131259092128442e-07,1.1580420068247285e-06,-2.6049130736192215e-06,8.584913663032498e-07,-1.397374036782616e-06,-1.9441491800792177e-08,-1.1459115231234136e-06,-1.0672352341714624e-06,8.588602558038784e-07,-4.6412727683953546e-06,1
4.3967473166252965e-06,1.4566622588535012e-06,1.7946885037675233e-07,3.0440422982758643e-07,-3.2149434595429834e-06,2.400515010969055e-06,2.7405104894093343e-06,-6.730958210768071e-07,-8.882110523171709e-07,-2.7213061151404113e-06,2.267642465434442e-06,-7.043315343701188e-06,1
5.0563676022678365e-06,-7.482508136436306e-07,-6.958759616312921e-07,-9.163920862750473e-07,-1.7190351921512402e-06,2.603860947868712e-06,8.111488164498175e-06,7.176328014151228e-07,-1.7537916431901988e-07,-3.81078244133638e-06,4.669477250440254e-07,-1.1079338908916723e-05,1
2.358873603515432e-06,-1.0178972631764303e-06,-3.472222772825326e-07,-9.65864457038058e-07,1.6691177911452442e-06,1.9344660117384996e-06,9.43384338039896e-06,2.301255663327932e-06,6.558709428686592e-07,-3.4041393306842064e-06,-1.4894129158295172e-07,-1.5638983612065222e-05,1
-2.117239763039096e-06,-2.2124513228381758e-06,1.3621476507313864e-06,1.7763229608773776e-06,4.009719762691057e-06,5.857730629208319e-07,8.143276362350681e-06,4.017060531008509e-06,1.3019130491218014e-06,-2.5127768821432503e-06,6.747284631516512e-07,-1.5148246340860433e-05,1
-5.235528438485434e-06,-3.917636655374829e-06,3.010148845230587e-06,4.365594882752925e-06,3.0133082536206437e-06,2.4779025280479246e-07,7.236043917749714e-06,4.510430624652054e-06,6.17748739632243e-07,-2.8595590968103433e-06,-1.4324370251529396e-07,-9.96619669724868e-06,1
-6.405726351509862e-06,-3.4847964257528388e-06,2.33385014042031e-06,4.0054628390830274e-06,1.268260927151645e-07,4.0322260595140303e-07,6.2265466515433305e-06,1.624510060087974e-06,-2.4844057347366397e-06,-4.307500238901214e-06,-5.554561252503087e-07,-4.435458233578423e-06,1
-5.8274206662317394e-06,-1.9015698808106848e-06,-7.328648048660918e-07,2.001206271857217e-06,-6.734089913760194e-07,2.600662177877211e-07,3.4175523893377507e-06,-3.6548499502410286e-06,-4.7175960774973595e-06,-5.49000077117202e-06,-1.12060882383711e-06,-2.393331570380109e-08,1
-3.463801602718972e-06,-1.1607854613135022e-06,-2.5160845582450797e-06,2.3194802476175472e-07,7.069011972845225e-08,2.493329701120109e-06,-3.789232705037462e-07,-8.132117167901928e-06,-3.108148144044052e-06,-4.826487042676251e-06,-2.0955416867450594e-06,1.5887291655406206e-06,1
9.60316379686631e-07,-1.4750222265089933e-06,-2.1625886165038546e-06,-1.3054532253855773e-06,2.9070574961048526e-07,3.1654535350481235e-06,-2.0418670707808357e-06,-8.800838204484022e-06,-3.944745147647097e-07,-1.9994008828058433e-06,-1.734431926388564e-06,8.877934853593484e-07,1
5.732152505759069e-06,-1.627540113204047e-06,-1.013532043507947e-06,-2.5762704344076718e-06,8.809995280474099e-07,-9.60742753856344e-07,-3.6357737314056408e-06,-5.608335707745459e-06,1.0082046763020877e-06,2.5278882862522016e-06,-8.223269412266787e-07,1.7825090593808328e-06,1
8.151386162199768e-06,5.500122219437065e-08,-1.1004487030816523e-07,-2.2648981995981167e-06,5.915068013864498e-07,-2.738905428723707e-06,-7.157070063712571e-06,-9.776707117989093e-07,1.075495971267104e-06,7.288103758651198e-06,-9.44175563590175e-08,3.6730201307825155e-06,1
7.710892493908187e-06,1.9099625320325104e-06,-6.196882489285096e-07,-9.216727181633915e-07,-1.1727238230976906e-06,-1.8264450954998932e-06,-8.811093311216043e-06,2.214002384407547e-06,-2.7761549668472745e-07,9.62186534302041e-06,-4.676645228005543e-07,4.2121386807965485e-06,1
4.433516759957404e-06,1.8604647427820046e-06,-1.334789646917477e-06,-9.231673540501952e-07,-2.2176620592314086e-06,-2.8389731015228806e-06,-9.504212495183581e-06,1.5977311278548916e-06,-1.5757539772588755e-06,9.263645924265901e-06,-1.3179627314511955e-06,4.44509632563423e-06,1
-3.199885663237103e-07,1.4663741631349658e-06,-8.954091208828779e-07,-2.1125899707893133e-06,-1.6737587068506617e-06,-2.859370002268902e-06,-1.2423775099260684e-05,-4.140496276539812e-07,-9.87999078871253e-07,9.334658132000638e-06,-5.341655180530876e-07,6.301105341623189e-06,1
-4.061121574784322e-06,1.5767541071178574e-06,2.935120452904059e-07,-2.4047097285355833e-06,5.0532152722256326e-08,-8.303592666756928e-07,-1.1614659163643444e-05,-1.4665554710959062e-07,1.2600546297215417e-06,1.053829350952282e-05,4.803067658283135e-07,1.0125407533264919e-05,1
-6.633004405823375e-06,2.1478054574927815e-06,1.4017479770330274e-06,-1.4938303073338194e-06,1.1095495768575677e-07,7.929066414081706e-07,-2.7757223115894605e-06,2.009761564549826e-06,3.204781849329258e-06,9.331303834794227e-06,1.9951470433806205e-07,1.0756641622413644e-05,1
-7.382848008789687e-06,2.8510953573581536e-06,1.906843521867666e-06,-4.954006992169275e-07,-2.036925693825268e-06,1.6806989031526673e-06,6.934052212328383e-06,4.601661550054621e-06,3.3384305454598155e-06,5.200577043810245e-06,1.1069160503968507e-07,4.619878396369132e-06,1
-4.481381230661876e-06,1.3669516134606797e-06,2.268874526581501e-06,5.334158456434138e-07,-2.3161124404845125e-06,1.829532629096465e-06,1.0507218470713113e-05,5.824455949226936e-06,2.499223364566225e-06,1.5341614474309226e-06,6.359873440731401e-07,-2.202660893399679e-06,1
-1.0633495989100795e-07,-1.2717305449748355e-06,1.923505110222487e-06,2.2421785527187494e-06,-1.3196077944638024e-06,1.4828490358522967e-06,8.787214977132415e-06,5.62020592015063e-06,1.6611613666154864e-06,3.2243135714241505e-07,7.898854966579487e-07,-5.420621903041618e-06,1
2.6359262051689735e-06,-1.3326120789565678e-06,5.827647030022489e-07,3.8145821495771617e-06,-5.551196898948852e-07,9.550677705459535e-07,7.410519248438343e-06,5.077654763850615e-06,1.3160467787743394e-06,-1.271440356084431e-06,1.0310179096328613e-06,-6.821115862195016e-06,1
4.144418779094087e-06,5.586719638610464e-07,4.302590001529236e-07,3.54535335719921e-06,1.8343533284972366e-06,6.143780278460313e-07,7.479150036811704e-06,3.2644454797075706e-06,1.3124626626209874e-06,-8.790110418888612e-06,1.5124234116889815e-06,-7.052950469537612e-06,1
4.046125029382709e-06,2.0879302438126816e-06,1.2805904397381301e-06,1.6897802451841673e-06,3.257559322439047e-06,9.330802547473471e-07,4.155038410937313e-06,1.287391608284357e-06,7.250112483667214e-08,-1.9414851732810157e-05,1.1967357517890545e-06,-7.504588754475756e-06,1
2.6920997611871404e-06,2.3845353722630954e-06,3.266693088997489e-07,1.1877563809646391e-07,2.087851849981494e-06,9.846338241393369e-07,9.898267632331272e-07,2.238274277375867e-07,-1.6933824359738601e-06,-2.4475353601114455e-05,2.8792931002495173e-07,-1.0926284614863202e-05,1
3.496510197984697e-06,7.364116277125811e-07,-1.3868492075827952e-06,-8.052365965966639e-07,1.2370939332199443e-06,4.868233872946519e-07,2.4586951438952267e-06,-1.7686715662182597e-06,-2.2712138566053463e-06,-2.234291684438768e-05,-1.3649991584247823e-07,-1.5418700848618785e-05,1
5.461103356165732e-06,-9.979050163821935e-07,-8.936912132923878e-07,-1.0349921055311658e-06,6.432870398401224e-07,2.6700518445035054e-07,2.1269641011659323e-06,-4.286032493097081e-06,-2.123442376812666e-06,-1.5985862404208068e-05,6.896419017024263e-07,-1.5276772013758857e-05,1
3.898056271515652e-06,-1.118522325109246e-06,2.6376823389872206e-07,1.3201980337293462e-07,9.720434587639702e-08,1.5166348117796405e-07,-1.8272185625383858e-06,-5.4876150763860825e-06,-1.8235437879478418e-06,-7.585324771404604e-06,2.059569500256223e-06,-9.518684988990218e-06,1
-2.0508284601363243e-06,-2.6273583500266522e-06,-1.001902716524868e-06,6.996409669378093e-07,2.785441246248369e-07,-4.873215791489488e-07,-5.454232314864531e-06,-6.1417580490658805e-06,-1.5122416094291926e-06,1.0518347850238996e-06,1.822283722782251e-06,-2.119756542637415e-06,1
-8.611058773045454e-06,-5.259211646739922e-06,-3.2983051983982315e-06,-7.649253687064812e-07,-4.425065139638898e-07,-2.1498798867664416e-06,-8.30436502676147e-06,-7.0052805737647016e-06,-2.083460287502211e-07,8.086832564150976e-06,-5.336330446642332e-07,4.180967307602834e-06,1
-1.0698240450413615e-05,-4.749264958924194e-06,-3.3382091364021536e-06,-1.905381365144615e-06,-1.7995233574901917e-06,-3.844967459789683e-06,-9.594150687544392e-06,-5.813323130555879e-06,1.8929001807965192e-06,1.2203030345958153e-05,-2.6309549686827954e-06,8.908930100891794e-06,1
-7.983949151748982e-06,-2.7052688664524106e-06,-1.520606503323456e-06,-1.5401416802141211e-06,-1.817925438121294e-06,-3.760560916975254e-06,-8.120520853582954e-06,-2.1364895419362804e-06,1.9044535399651052e-06,1.4238413382028522e-05,-2.4968263168858966e-06,1.3516765819224075e-05,1
-3.5289218588119913e-06,-1.7704132269647306e-06,-4.294091311591976e-08,-1.185826336848888e-06,-6.059986138272725e-07,-2.4529944137480944e-06,-4.941046976706403e-06,7.536991074632134e-07,4.9752726935752496e-08,1.5612069855406187e-05,-1.7273891624772845e-06,1.9302790826200047e-05,1
1.4506644841383407e-06,-8.66587193739736e-07,3.7948911212346837e-07,-2.1006911179638108e-06,7.135175211238552e-07,-1.4426299243109366e-06,-2.4467148831945496e-06,1.3889253590125807e-06,-1.4686720619112243e-06,1.621056233871635e-05,-1.9030524725040028e-06,2.479070959358177e-05,1
4.471642433314882e-06,3.0849376259767716e-07,-1.1713874232353049e-07,-2.642614465077863e-06,1.4332245996514603e-06,-1.088644293508298e-06,3.1112484862971776e-07,6.54182480378359e-07,-2.440452189244063e-06,1.5043961780591165e-05,-2.0602897111786774e-06,2.6231649475061544e-05,1
3.745200734906912e-06,2.0654785627843715e-06,-4.909945101328576e-07,-8.488560562790261e-07,7.647387007204806e-07,-7.208997104172651e-07,5.486923811353263e-06,4.350665416351114e-07,-2.1721057386012377e-06,1.2311366672670396e-05,-1.3742054887772522e-06,2.2068845983761352e-05,1
1.9302373195684757e-06,3.954530705063405e-06,1.6311583485266254e-07,1.377745583663755e-06,-6.62305072460057e-07,3.554625523717833e-07,1.023071293014663e-05,9.360714035549135e-07,-1.1217861358051838e-06,9.989879794244006e-06,-6.498197003676839e-08,1.5659338243639864e-05,1
1.5517694344516134e-06,4.740172875158982e-06,1.8889260297978416e-06,2.2315804785318508e-06,-3.5193276020726325e-08,2.1502651701224217e-06,1.1252922664756912e-05,4.673301670747098e-07,-1.2005539891910191e-06,7.721560344406122e-06,3.398233932233034e-07,7.582959518233491e-06,1
2.624245150530931e-06,4.5726375329846625e-06,3.3137849878295695e-06,2.111124806260026e-06,1.2761016945072062e-06,3.9917534770464294e-06,7.89977466804402e-06,1.4960683592784715e-06,-9.455751871100027e-07,2.9786128658560802e-06,2.022730069093263e-07,-4.089457889021302e-06,1
4.150608138325933e-06,3.49573804951896e-06,2.7032822352879883e-06,1.6230453338377893e-06,-4.126498197842454e-08,3.295472974650948e-06,2.1549146641805855e-06,5.107913181199297e-06,9.59820503220038e-07,-3.1072942350151782e-06,1.2316690312709737e-06,-1.5049974256286509e-05,1
5.266823106516321e-06,2.239372772540475e-06,1.507909949173279e-06,1.6259010247075326e-06,-3.475914588422411e-07,1.1314683748155563e-06,-3.01235778093275e-06,6.92873484161616e-06,2.437281850792897e-06,-7.998290483390199e-06,2.255423224250143e-06,-2.0946404978065913e-05,1
4.053544628913652e-06,1.06400816421742e-06,5.450712261154286e-07,1.5807592201570315e-06,1.3433585147024078e-06,2.8865648411674663e-06,-8.544593024104593e-06,5.739654675394592e-06,3.015574988177024e-06,-1.224642648074318e-05,3.0516957874359916e-06,-2.443221312966235e-05,1
-1.078327134270438e-06,-1.0040298554715265e-06,-1.1216319794763299e-06,4.970942037138252e-07,8.593438700362065e-08,6.180423056726758e-06,-1.3984495610601086e-05,2.2764049045113656e-06,2.8065672224752522e-06,-1.5718413395552803e-05,3.090053310334426e-06,-2.9080257996728256e-05,1
-7.033005076858984e-06,-3.419198784645173e-06,-1.98252477273765e-06,-7.456133373472967e-07,-2.083913186200944e-06,6.0228661027288604e-06,-1.3869548030100774e-05,-2.3019337478073427e-06,1.6987370389963873e-06,-1.6820918543249717e-05,1.4614546589097205e-06,-3.2961193198341316e-05,1
-8.94549517285398e-06,-5.156216855081546e-06,-7.71564154658491e-07,-1.2795226769799194e-06,-1.5161547068552219e-06,3.4507783984424462e-06,-7.095711729902892e-06,-3.643951617238059e-06,1.2291477427056839e-06,-1.5725239268823436e-05,6.993913055730461e-07,-3.133098927648082e-05,1
-5.572633620851227e-06,-4.88245291170495e-06,1.5282597200320359e-06,-1.2775763394802377e-06,-5.521521861907373e-07,-1.3058759815944393e-06,1.0774105333409905e-06,-4.6486140859896375e-07,5.051095394416869e-07,-1.2890918706955673e-05,6.710409753001808e-07,-2.266093919362189e-05,1
2.666444164288897e-07,-2.1186903364402367e-06,2.73527274606395e-06,-9.136234837674084e-07,-5.417946228223149e-07,-6.1936433715109025e-06,7.129207408330365e-06,4.16887808794078e-06,-8.291559740560679e-07,-9.048111944753616e-06,-2.649869206978426e-07,-8.38035921434836e-06,1
5.500954445760385e-06,4.309071510417551e-07,1.3537993191760893e-06,-4.469265240679405e-07,-4.934663787127611e-07,-7.448510290052587e-06,1.175032432348026e-05,7.030726756491016e-06,-5.738199353567499e-07,-6.127172554495651e-06,-1.7836800915895492e-06,6.302746906341919e-06,1
8.747536754663663e-06,9.402582035051241e-07,-1.7398026013610218e-06,-5.868686283173438e-07,-1.974357223663628e-07,-5.790449186024539e-06,1.8043470916682046e-05,5.3499328453817025e-06,-1.6244683984762973e-07,-4.328659827914784e-06,-3.46160118124022e-06,1.4022272005816643e-05,1
7.556425520217969e-06,7.843052759396949e-07,-3.3164045566907254e-06,-8.402377952386845e-07,-8.35108226348004e-08,-2.6735997131195403e-06,2.5375782714834617e-05,-7.97212321671661e-07,-1.3523521003175186e-06,-1.4905146193214614e-06,-2.925560535050445e-06,1.672303897798407e-05,1
2.1650993798781676e-06,1.5041652879013344e-06,-1.3683858115645288e-06,1.362969318550784e-07,-1.0043849070924956e-07,-4.4774232222434204e-07,2.6296087336678485e-05,-6.968933477723708e-06,-1.7579905647665185e-06,4.3089400211289715e-06,-2.311640989299722e-07,2.2537971844876666e-05,1
-1.8057994168869914e-06,2.830411467949618e-06,7.265448053846457e-07,1.7947108404201126e-06,-3.4136721517852416e-08,-6.440243579811623e-08,1.8940340343357567e-05,-8.198340203338043e-06,4.961047966550208e-08,1.1340678073328062e-05,6.245512514705333e-07,3.130975032563414e-05,1
-1.0950793460938861e-06,3.301365587814932e-06,7.804401125396589e-07,2.8253792744517045e-06,7.96165736549262e-07,8.660049258688103e-07,8.707962379473557e-06,-4.971223703282629e-06,1.484078561339576e-06,1.4043015386547324e-05,-1.0182510702418461e-06,3.6473045690731487e-05,1
1.4965451564521401e-06,2.0746328220138086e-06,-2.329152854603797e-07,1.9732144067325132e-06,3.131069759465072e-06,1.2510523165540629e-06,-4.867449861582162e-06,-1.8088461168572312e-06,8.296568470468833e-07,1.1306533271848824e-05,-1.864347597720008e-06,3.268116011776524e-05,1
2.0782285701915158e-07,-7.162207811093289e-07,-1.7895354650731864e-06,-6.922974242266494e-07,3.6629872945649407e-06,1.2231970042348563e-07,-2.5974976390252493e-05,-1.7903970528198336e-06,-5.497434624124425e-07,9.675863361356843e-06,-6.417269343187038e-07,1.9452117230101792e-05,1
-7.142201556107763e-06,-3.1737128037872127e-06,-1.2956186974570267e-06,-2.1034460548742943e-06,-2.590393345141863e-07,-7.592915777172332e-07,-4.9497696248184795e-05,-5.768377964222947e-06,-2.1103534713699654e-06,1.3073390236104212e-05,8.657976699834749e-07,3.153187309323743e-06,1
-1.431829467118156e-05,-2.0247941431986107e-06,-7.963930656796123e-08,-1.7036866270729039e-06,-3.689809903038783e-06,-1.3565474222422208e-06,-5.6479904600909376e-05,-9.6868724436925e-06,-2.6997719263690785e-06,1.690120823327911e-05,1.4335797856802564e-06,-8.526177623129276e-06,1
-1.3569408066769716e-05,1.3170224144382784e-06,-1.5214400619515728e-06,-1.6992835316121635e-06,-2.58921001181555e-06,-7.623070063805438e-07,-3.5244044934415635e-05,-7.137674398090628e-06,-9.793330500808518e-07,1.3944571270041499e-05,5.407088487001638e-07,-1.3344230472923508e-05,1
-5.827795772448276e-06,1.5042917090089303e-06,-2.4238108975421735e-06,-1.856600705784954e-06,4.641030752560462e-08,1.194944635413779e-06,-3.305280243050871e-06,4.843094466118523e-07,1.3263567287531837e-07,3.1959879641829396e-06,-9.07463221999138e-09,-1.4323760608737304e-05,1
1.701628039829831e-06,-1.3950793078241338e-06,-1.0313950318180448e-06,-1.218690777888856e-06,1.421583771475135e-06,1.931083551458776e-06,1.5723500705474507e-05,6.052097606164669e-06,-4.3658301788753006e-07,-7.636670448001444e-06,1.1314430842598776e-06,-1.4412429465917763e-05,1
6.390091599428055e-06,-3.4367440036752438e-06,5.62851331714647e-07,3.320163199196131e-07,1.9181113962096675e-06,1.30626635905297e-06,1.9385154441804518e-05,7.623478547165667e-06,-2.825594731197985e-07,-1.132787747379713e-05,7.284974485950505e-07,-1.4143099330782511e-05,1
8.818723247675905e-06,-2.846870864808937e-06,1.6269123234805683e-06,1.7489106920646144e-06,1.949715294813646e-06,6.696211904989035e-07,1.63953176047758e-05,7.554504558305568e-06,-3.0807074841103464e-07,-9.944061791317456e-06,-5.772655518204843e-07,-1.4074438298077626e-05,1
7.47724337762986e-06,4.850104171725262e-07,1.9857780479937905e-06,1.8093084663215083e-06,1.2883720848218093e-06,1.0403014868716794e-08,1.3052793440630887e-05,5.897744762405571e-06,-1.6785411136676425e-07,-8.837163980642072e-06,5.948037037990032e-07,-1.4111889430344253e-05,1
4.0706388303256995e-06,3.387235746449117e-06,2.2406141167807926e-06,8.948070106465343e-07,-6.071057661247734e-07,-2.526444817895672e-07,1.188013011124108e-05,3.5364806274167907e-06,1.7478617645690512e-06,-7.152312911672955e-06,2.4702100491371105e-06,-1.3531598115955431e-05,1
1.6515797764026472e-06,2.361222364771601e-06,2.824585115199469e-06,-6.485425537003058e-07,-2.8938804309470407e-06,5.196399722942471e-07,1.2518081474387496e-05,2.2724054451497162e-06,2.3157098422686687e-06,-3.0514490671112344e-06,2.746496540974285e-06,-1.3111782305386819e-05,1
7.626596872237132e-07,-6.853170095254207e-07,2.2966410059721263e-06,-1.805439035533662e-06,-3.7296700251473596e-06,1.6643407476047313e-06,1.2610417039929421e-05,7.952226105053092e-07,1.2931982353011433e-06,-7.797801064140731e-07,1.1576398840907824e-06,-1.1951669976765126e-05,1
1.358198413418533e-06,-2.7594938532652006e-06,8.962813156150279e-08,-1.1653716115838347e-06,-2.883467037174542e-06,2.0556600038946065e-06,9.438910198851573e-06,-1.400461971739817e-06,1.4609680952843001e-06,-2.3346551776472274e-06,-1.3697060660518204e-06,-6.89224008845968e-06,1
1.2769426435534016e-06,-2.79128517238272e-06,-8.320769211833785e-07,5.122285698527444e-07,-6.647796041845538e-07,1.6813498725649015e-06,4.232763440494053e-06,-2.3769536707005684e-06,1.6016164270643934e-06,-3.781046263943159e-06,-3.0021431772212038e-06,1.537521392586133e-06,1
-5.602231597308776e-07,-6.754999185430898e-07,2.620173959887199e-07,1.5724878012133819e-06,1.6431685750487987e-06,5.601177708139316e-07,8.291463298305273e-07,-6.831029687662271e-07,1.2970680842569151e-06,-4.128122652720153e-06,-2.7253605818206786e-06,9.497183163648352e-06,1
-1.3362059012196078e-06,1.4741491936960335e-06,-3.8755554962086595e-07,1.463854276144883e-06,2.6353821573905764e-06,-1.0218370471824947e-06,-1.6451896228118952e-06,6.07040582593071e-07,2.1639548277529341e-07,-4.048225519976882e-06,-1.1284987558529644e-06,1.4378581294913409e-05,1
1.7669617667367338e-06,1.8728670290675873e-06,-1.4279076722545633e-06,1.4115882195692137e-06,2.8218416708742257e-06,-1.5923417162255934e-06,-4.64120753207615e-06,-2.00703588212457e-06,-2.811268574691308e-06,-1.8509204002098599e-06,-2.0888129206010284e-08,1.4906867087948308e-05,1
6.144965980782264e-06,1.0459348539006488e-06,-3.5892777618381645e-08,2.566036685822278e-06,1.5358299902231734e-06,-1.319163234555386e-06,-4.6144955798333345e-06,-3.996064285464409e-06,-3.975649439379846e-06,1.184764812370082e-06,4.843366470546671e-07,1.2642389715344058e-05,1
5.245366150642495e-06,5.254643080984962e-07,4.392755708875393e-07,2.9143835378968456e-06,-3.392225585679362e-07,-8.84231599515742e-07,-2.045817459651005e-06,-1.1982752209772794e-06,-1.5821969216779036e-06,2.304758604497975e-06,7.129240970232655e-07,1.0844635498871984e-05,1
3.04758982445982e-07,1.9388755070372444e-06,-4.556535288269168e-07,4.90298412616405e-07,5.2194821478847026e-08,-2.6883852087188383e-07,-9.354420916678663e-07,4.136611904421863e-06,1.8812538855140614e-07,2.1004184479456453e-06,-1.8132620909521652e-07,1.004468112801134e-05,1
-2.672382653433688e-06,3.118865155519446e-06,-8.397599736021383e-07,-1.6721047024489564e-06,3.461922035052989e-07,-2.980861896643141e-07,-7.736348093913843e-08,6.700395153849849e-06,7.253133603357957e-07,1.8625469047893003e-06,-8.955118791244353e-07,1.1156077966987153e-05,1
-4.562290078223643e-06,8.28592974102234e-07,-1.3404947626239287e-06,-1.0548084401992825e-06,-1.5532252868407633e-06,-3.185893707963659e-07,3.91021950762632e-07,2.3072522399570375e-06,1.972497798962202e-06,1.9227846341391747e-06,-5.075897716629577e-07,1.313985154143037e-05,1
-7.0223225124848815e-06,-1.8367333581536118e-06,-8.201899509165184e-07,-9.795715141057897e-07,-2.570312410786528e-06,8.18764273542367e-09,-2.2456131886287497e-06,-3.017896747559803e-06,2.2295070513907357e-06,2.5424492543039224e-06,-1.5233182819864392e-08,9.13287768471944e-06,1
-7.17484617899495e-06,-1.8297402929551576e-06,-3.179770282139213e-07,-3.0027375118875337e-06,-1.5446893523806894e-06,-1.5521413742249913e-07,-5.758348928239087e-06,-2.2297860285801324e-06,7.724993534370818e-07,3.5947440883732543e-06,3.5913687296956257e-07,-1.4939069503102002e-06,1
-3.694183464810908e-06,-8.86031457131718e-07,-1.2283662511867573e-06,-3.6136907200898876e-06,3.1408801420742955e-07,-1.4085482688124999e-08,-7.759060616691836e-06,5.734632310880942e-07,4.17345205840707e-07,4.11853309034313e-06,2.833814982499858e-07,-1.200244914978411e-05,1
4.4935679492207166e-08,-3.5568393765238044e-07,-5.594952706679036e-07,-2.2871418575256612e-06,2.0864165061346223e-06,3.622938631281032e-07,-8.66735163232863e-06,6.682905505119317e-08,4.441586607875999e-07,3.191920702769822e-06,4.3088158826640986e-07,-1.836053206403565e-05,1
1.696404761324997e-06,-4.081231895680833e-07,1.4862476573037177e-06,-1.3630403714261784e-06,2.0675026038703813e-06,5.080946311891007e-07,-6.539924641483795e-06,-2.921534303024327e-06,-1.2130671891147467e-06,1.21808251474266e-06,1.6262006214559903e-06,-1.7203002499117854e-05,1
3.1445833738154014e-06,6.089195472217832e-07,2.5556308189966083e-06,-1.6635136103686114e-07,1.9655529382912453e-08,-5.205982818618218e-07,-6.285864391301092e-07,-4.299401349034089e-06,-2.1097912024382487e-06,3.997145802391137e-09,2.163280721334366e-06,-9.874099409010165e-06,1
2.7956409102451266e-06,3.0682602613635902e-06,2.529907064984731e-06,1.209114090816326e-06,-1.0499725282465958e-06,-2.9771777397617243e-06,3.9899430606448534e-06,-3.4313358948325708e-06,-1.9319182597147157e-06,1.6187893519789375e-06,1.000751256021074e-06,-5.153239575155553e-06,1
-1.8108916523592848e-06,3.0141261554886717e-06,4.421060098907558e-07,1.2590733910366222e-06,2.698383116692911e-07,-2.5620583968906846e-06,3.979429177031025e-06,-2.7041749447014517e-06,-1.8956479143732786e-06,4.6255721523075695e-06,-4.868268043166463e-07,-5.5739024827950256e-06,1
-6.301868321724576e-06,4.6664239541783125e-08,-2.7501146894376915e-06,1.4244564339339135e-06,1.166719526357524e-06,9.991455304256759e-07,2.2102404092154098e-06,-1.3290721602647354e-06,-2.868117002623626e-07,3.7271474232033655e-06,-6.913965629551383e-07,-5.549771082405276e-06,1
-7.865102879731757e-06,-2.0140806545784695e-06,-3.3868768934656395e-06,2.2404632040410065e-06,2.89705686812432e-07,3.0328135094934824e-06,1.957880241850621e-06,6.087660152530787e-09,1.6028533782691388e-06,-2.1001228190049423e-06,-3.603471814691779e-07,-3.0763426155645002e-06,1
-7.728354087158065e-06,-2.705198832435508e-06,-1.8591190640235012e-06,2.6002714604836026e-06,-8.409605674549396e-07,2.619599158847376e-06,2.8007779301158603e-06,-1.0619124536202184e-06,1.1626491357177208e-06,-6.83607144219587e-06,-1.1033109535855214e-06,1.6959020445953027e-07,1
-5.491218446485821e-06,-3.6572472381488694e-06,-1.2200589819829404e-06,1.641333072532194e-06,-1.6160922151078935e-06,1.1091935242569099e-06,2.1761049628474076e-06,-2.4915944676705684e-06,-1.540570007760932e-07,-6.380492899935527e-06,-1.0746069615651006e-06,4.377339220569517e-06,1
-7.128378979271427e-07,-4.989452965552597e-06,-6.757906646969993e-07,-7.39264572089812e-07,-1.4366082587010305e-06,4.3317717279237876e-07,8.890015398320025e-07,-1.3194085940672447e-06,-6.608946685468368e-07,-3.565118478183324e-06,6.616080208233984e-07,8.428702074549523e-06,1
5.5578732571982875e-06,-5.3157525404096355e-06,1.4040141400201696e-06,-1.1516403009129287e-06,1.2784953926069985e-07,4.9999726951932296e-08,1.115203569180447e-06,2.2207203095453186e-06,-4.761676217697344e-07,-1.9363282385963363e-06,6.963087019188622e-07,9.018334540186891e-06,1
1.0613184667259208e-05,-2.521829177276108e-06,3.192115701161377e-06,9.058876872132815e-07,1.4063722440219732e-06,-1.4933976189561662e-06,9.86642137766143e-07,5.600782707834313e-06,4.443527746349682e-07,-1.6495458897309458e-06,-1.2879340636290592e-06,6.893683238705966e-06,1
1.325398449490836e-05,2.478918732960901e-06,2.6223681006841286e-06,1.2213723468981342e-06,1.4213130892196574e-06,-1.8184622126026523e-06,-2.30508346732744e-07,7.380571830244366e-06,1.2285133725621198e-06,-2.3110798769069114e-06,-1.745215248956299e-06,5.632465584802507e-06,1
1.4876391242098331e-05,5.4929473111119275e-06,6.553996372368011e-07,-4.3183978339610685e-07,4.6787029098917843e-07,-4.582322183847545e-07,-6.871595356220421e-07,7.718661329878216e-06,9.612203574459023e-07,-2.3580047817155493e-06,-6.063361983454869e-07,5.080261656476583e-06,1
1.516805526019622e-05,4.994320655999867e-06,8.299578648610178e-08,-2.008399133734121e-06,-1.880389211371381e-06,9.586631137223744e-07,1.92768793013569e-07,5.799803477393431e-06,6.191364458842125e-07,-6.225291635116694e-07,-3.445232067808068e-07,2.6201240607809666e-06,1
1.3635236190013434e-05,3.5077952401367706e-06,1.1626058248164653e-06,-2.624412825201802e-06,-3.0458068023990364e-06,1.1143584170965509e-06,1.2200309862139336e-06,1.9495677878998718e-06,-2.3819779610346852e-08,5.792963028330838e-08,-5.621586009643161e-07,-1.3314508989508786e-06,1
1.0074480943762448e-05,3.1680486705361546e-06,8.643532082650462e-07,-1.650909512299078e-06,-4.2512078771843686e-07,-7.645902063691804e-07,4.999635012577224e-07,-1.6320361634776395e-06,-1.082390958508606e-06,-5.047658500798338e-08,-1.0875338915320418e-08,-3.2564008681093156e-06,1
4.352762573313907e-06,1.9719654201209917e-06,-1.2634756465318486e-06,-5.672488388622149e-07,2.0900445009253635e-06,-1.7915844379607112e-06,-6.959650903244859e-07,-4.970112074581706e-06,-6.919845442219993e-07,2.7546923713018504e-06,1.4169833974394847e-07,-2.4368535407715834e-06,1
-8.424067847130296e-07,-8.329965137176992e-07,-2.226675642172118e-06,-5.378226896641581e-07,1.6644186445643814e-06,-5.141438105672372e-07,-9.158927620532945e-07,-8.592454462783004e-06,5.072617311327372e-07,6.669178424443028e-06,2.594709476675996e-07,-1.6239054900516813e-06,1
-8.175289989256946e-06,-5.71054428882786e-07,-1.475973567161469e-06,-5.583734351866268e-07,-4.5691963031476017e-07,5.280946480581342e-07,-1.9024961702656815e-06,-8.301112959256768e-06,1.2351666825602696e-06,8.137044844264522e-06,1.6573532895107904e-06,-1.4356745551498556e-06,1
-2.4100210340472866e-05,1.6333699304356001e-06,-5.690802991994129e-07,-4.682243526571287e-07,-2.332272202064108e-06,4.3926875580925594e-07,-2.5085511847285495e-06,-1.4772362925544216e-06,1.9299926927394194e-06,6.7734734222229585e-06,2.2070754767367886e-06,-2.829569475607322e-06,1
-4.081503950152553e-05,1.2692325822153335e-07,1.3896147156874595e-07,2.0367253741454847e-08,-1.252911410717713e-06,5.30524595530736e-07,-1.0489267444371298e-06,5.014045532039585e-06,1.4832515839153911e-06,3.39539670011155e-06,1.4114003321547348e-06,-6.221589951595083e-06,1
-5.0356460829056945e-05,-3.937519372783085e-06,3.643580199387224e-07,1.3916444845708777e-06,8.5413967448109e-07,6.535840008772442e-07,-2.2662294191655887e-07,2.79223343477615e-06,-6.653061211682066e-07,-7.464214639567434e-07,6.111497478738336e-07,-6.778777516119538e-06,1
-5.463290134166678e-05,-8.419275626990224e-06,-4.4475763602771616e-07,2.398306184201906e-06,8.802952549399385e-07,1.877546928924912e-07,2.739263047031504e-07,-6.37543598219797e-06,-2.508278939854689e-06,-5.0314505003163275e-06,-7.456369719484644e-07,-4.731400228366779e-06,1
-3.134221409842658e-05,-8.507375612099724e-06,-1.0375316647682198e-06,2.2586391812563605e-06,8.423226502652156e-07,9.760502275369122e-07,3.2854448412262652e-06,-9.476272388214288e-06,-2.362610671216533e-06,-7.85127154550608e-06,-1.2143398146597819e-06,-4.683953501922363e-06,1
3.691481027071146e-05,1.7587831529463432e-06,1.342442980034278e-06,1.7850366862603141e-06,2.479861532143367e-06,2.32715248518267e-06,5.600197933433831e-06,7.733417354965343e-07,-4.072065305538972e-07,-6.1940626002365776e-06,-4.450569259234182e-07,-3.872772854717683e-06,1
0.00010170158504942287,1.2745886000231394e-05,5.0049494108375305e-06,2.2663923871712714e-06,4.770524682499542e-06,1.6021106669869795e-06,4.523939634991317e-06,1.1983263962223576e-05,1.3926714285036739e-06,-7.287162718274846e-07,-3.836592914689103e-08,4.3790395732465707e-07,1
0.00010689697762247969,1.3351148870734762e-05,5.079248226586982e-06,2.8137674539602512e-06,4.435790298164318e-06,1.7762610407075506e-07,2.927604526737866e-06,1.227464677859382e-05,1.4932252239905632e-06,3.1071743227382514e-06,8.550591250078773e-07,5.440037530152357e-06,1
6.225960789867312e-05,7.639333816707162e-06,2.065637686147183e-06,1.4225636040442878e-06,5.360106079821662e-07,-1.2690503542976708e-06,1.6783585624979475e-06,6.481676189247642e-06,3.449352291813909e-07,2.353481446423521e-06,1.50187702856114e-06,8.569638419489509e-06,1
9.265826321863497e-06,1.0278534894043092e-07,-1.435449818953381e-06,-7.457361026477077e-07,-2.7442744240365792e-06,-2.4020329825291284e-06,-5.5055875693194436e-08,2.136791646756476e-06,-1.1051014240031572e-06,-2.846644404778267e-07,6.256626775470153e-07,9.369434443122352e-06,1
-2.910376349502631e-05,-6.598269985060686e-06,-3.958208027212888e-06,-2.5567063752619987e-06,-3.7800838948039095e-06,-1.2002486420436186e-06,-1.8393970382677871e-06,5.607188497391119e-07,-1.880035629948245e-06,-3.1555601915509496e-06,-5.976171446964331e-07,9.890996776517371e-06,1
-5.440747068900817e-05,-9.502503528553193e-06,-4.461249021286091e-06,-3.6304635005014634e-06,-3.992939287155595e-06,9.430361751000257e-08,-3.9719693050820235e-06,-1.310862163765163e-06,-1.8352482710843542e-06,-5.772469304084314e-06,-7.370765986181752e-07,1.2034483580166376e-05,1
-8.337085965070771e-05,-1.3808965856961063e-05,-5.541951222191188e-06,-3.756430591961061e-06,-4.139633516150805e-06,-1.1087837472167196e-06,-6.978135026442071e-06,-8.124329969546443e-06,-1.748575562995826e-06,-6.450462192368291e-06,-4.1934250522073634e-07,1.3188645221118307e-05,1
-0.00011825402961058239,-2.0334744279124174e-05,-7.031011973606352e-06,-4.904274892176642e-06,-4.227784246652596e-06,-2.7957333468925942e-06,-9.336093231209652e-06,-1.640607902915038e-05,-1.352306437138075e-06,-4.6847705291215185e-06,-1.8248093499099792e-06,1.001926414078509e-05,1
-0.00010716321462996096,-1.5395344295547358e-05,-4.05968107940533e-06,-4.6529117183119626e-06,-2.200805040992696e-06,-2.5257624420339202e-06,-6.815428716052928e-06,-1.2180510925829888e-05,2.4735601459044105e-08,1.2297158530106e-06,-2.4750409687314777e-06,4.449002139066295e-06,1
-7.37093951487253e-06,5.001552375492229e-06,2.5959493941061784e-06,2.39813557543999e-07,1.9323006777823085e-06,-6.159924472876598e-07,6.116784364067214e-07,6.960855770449808e-06,2.20668941165134e-06,8.572838245963524e-06,-4.2817928631782234e-07,-6.490635390072941e-07,1
0.00010233678618599326,1.9723665170088424e-05,6.29542262529235e-06,4.571056122988466e-06,4.583934554433864e-06,5.397718657436409e-07,5.494523180070533e-06,1.903354429422929e-05,3.619522366370192e-06,9.404315272011519e-06,7.148222219387167e-07,-4.37189971384764e-06,1
0.00011335028972558786,1.373235617126321e-05,3.4689408507811394e-06,3.7700109859813193e-06,3.900354910983844e-06,7.732603968202111e-07,3.656019988864709e-06,8.8520849965358e-06,2.5078119388245906e-06,5.137452011538942e-06,7.583143786147367e-07,-5.515963497942366e-06,1
5.207282211722403e-05,2.527959489137128e-06,-8.758940713133984e-07,2.8841383164464094e-07,1.1854967554705928e-06,1.530792700350789e-06,-7.661542121922605e-07,-7.805807118633408e-06,7.761409635924018e-07,2.2975796610455454e-06,4.951397775382163e-07,-6.585239595041209e-06,1
1.1386472826271125e-05,1.9538424165916415e-06,-2.252140787581907e-07,-1.2901988425545525e-06,-7.267148596597772e-07,3.0871793381367442e-06,-2.1069810266208395e-06,-1.1956731965814119e-05,1.2976859704749926e-06,1.8752326161411862e-06,-6.267568332274916e-07,-1.0799815108737352e-05,1
1.2776106844649887e-05,5.7931537085618e-06,3.228234205620452e-06,7.971989423217316e-07,-7.965584683985162e-07,4.67311824012029e-06,8.209818497220187e-08,-7.130983174473513e-06,1.9894674365262745e-06,2.1374957372346975e-06,-5.909821250464004e-07,-1.8500118896169463e-05,1
2.701355274153566e-05,7.197812891703559e-06,4.272397972891889e-06,3.5912618247672147e-06,2.521652654888784e-08,2.6972608275561795e-06,3.573642920416406e-07,-3.4008810376688956e-06,5.460304061723512e-07,1.393936865000641e-06,4.0707414337009e-07,-3.071077833397068e-05,1
3.873107347731424e-05,9.104504344710204e-06,3.087900261820517e-06,4.510118893933225e-06,1.4885047241040027e-06,-1.8241617999430791e-06,-3.035504923075706e-06,-1.4275070530835398e-06,-9.66668556173756e-07,8.598075445917189e-07,9.767668889487051e-07,-4.495318085831809e-05,1
4.455853926202969e-05,1.2034001600161095e-05,2.5522850928209344e-06,2.963111759816817e-06,1.8784471305713567e-06,-2.3697368068485545e-06,-3.446186787382783e-06,8.596869908107732e-08,-1.7098491382316278e-06,7.287492247940974e-07,9.404328052415926e-07,-5.2477307824757565e-05,1
3.599584708056231e-05,9.966329974788139e-06,2.8380487157450366e-06,-1.0116175082756317e-06,-3.340113886026132e-08,-4.216418903376835e-09,1.305660844021421e-06,4.4686226740237997e-07,-2.5974233671368793e-06,-1.1513078592847857e-06,-3.0171954401361385e-07,-3.589278133403578e-05,1
3.7247440350645734e-06,-9.054681565951312e-07,1.3748055134663714e-06,-4.158364378462451e-06,-1.0197908833724415e-06,4.0087897164047015e-07,5.932683513003492e-06,7.867491864679577e-07,-2.1239106489416946e-06,-3.659943349643676e-06,-1.1052679854264792e-06,1.4223032793903338e-05,1
-5.41346304072597e-05,-1.513540556877714e-05,-2.569755756329814e-06,-3.840807439191875e-06,-5.780081834780825e-08,-1.808877326010648e-06,8.729399768333775e-06,2.1922989503196846e-06,5.208806660008972e-07,-6.460562180533412e-06,-8.23844017816625e-08,6.815310192199474e-05,1
-0.00012206370264279578,-2.294642168322793e-05,-5.966399836078039e-06,-1.6947821925861155e-06,-6.121818369746148e-08,-3.6109688823226486e-06,8.933316037212085e-06,4.981718087265452e-06,1.6820253448261023e-06,-8.529919901174478e-06,8.322348960088572e-07,8.465703009861221e-05,1
-0.00016381752963232803,-2.0580346202651917e-05,-6.020111613260486e-06,2.5361306261213827e-07,-8.664902188997093e-07,-2.0146113241500114e-06,5.679477295797674e-06,6.6976443002182e-06,-1.4922438125045055e-06,-6.7591920592042e-06,6.106150460081117e-07,6.126750116517359e-05,1
-0.00015617295441571516,-1.6293849979314097e-05,-4.741851805051955e-06,4.771368760243745e-07,-2.0229445394223523e-06,-9.331035816410186e-07,2.0028639851989664e-06,1.4581087887342028e-06,-4.673819204241154e-06,-4.112671806678269e-06,4.2928568857694413e-07,2.566236103047709e-05,1
-9.827718645603817e-05,-1.534109400548104e-05,-4.142478447966007e-06,-1.3525102291679073e-06,-4.159554328585831e-06,-2.24052505724132e-06,-8.704540197848613e-07,-4.505382416695102e-06,-3.873761780286602e-06,-3.2682933204268818e-06,3.703462182422064e-07,6.432255665320276e-07,1
2.4128251788685157e-05,-4.700559066195261e-06,-1.1651243089533366e-06,-1.8433635849878247e-06,-3.231390421648703e-06,-5.604895232942899e-07,-1.273789914723309e-06,4.969177337203739e-06,-1.1802979274894459e-06,4.772301785197173e-07,-1.805058675977297e-07,-1.0222169739028705e-05,1
0.00017253829612132212,1.834575359690102e-05,4.570901982990758e-06,4.3977557298084707e-07,2.4355296820021706e-06,3.5415002872772565e-06,1.61267881265741e-06,2.3613703933283933e-05,2.010519232395516e-06,7.260576977006476e-06,2.1703433102061317e-07,-1.3909029281093265e-05,1
0.00021872119338544246,2.9794366067400716e-05,7.742655791084896e-06,1.9393835891232082e-06,5.65465045901949e-06,4.702914408898047e-06,2.089198108572828e-06,2.450600228179668e-05,4.149521675905041e-06,8.853786238840104e-06,1.8087704397931106e-06,-1.6173740090483343e-05,1
0.00012660542125803856,1.8540002986358575e-05,5.096845351373407e-06,1.49653484441534e-06,2.70740094883027e-06,3.3125355318090235e-06,-1.7660788486348764e-06,2.041149700111269e-06,3.200517783092995e-06,3.840845279389847e-06,1.7067250757644054e-06,-1.9171935306680528e-05,1
1.3908330107835454e-05,2.2656055399875716e-06,-1.732413417230372e-07,9.046588199849164e-07,-2.6454582903219263e-07,2.788395518686249e-06,-6.068312631951355e-06,-1.8199884681229996e-05,1.2841714777077059e-06,-4.927507181940436e-07,-3.946968721128277e-07,-2.196104107868533e-05,1
-3.28800657337978e-05,-4.273162723153252e-06,-2.4391276482690346e-06,8.735819566525243e-07,6.49817657702557e-07,2.436965879149554e-06,-8.067063467939057e-06,-1.7039695490118822e-05,9.075363692436316e-07,-1.1690469179806092e-06,-1.7344308567819152e-06,-2.146019393105827e-05,1
-3.0272917652272347e-05,-3.592198959101837e-06,-1.7142529872144957e-06,9.292464768531917e-07,1.9468160317737747e-06,9.821988885434763e-07,-6.755811684635007e-06,-3.482061274976185e-06,1.7353542375012005e-06,-4.690113112605783e-07,-1.529873235535119e-06,-1.5176963261654718e-05,1
-1.83048271583125e-05,-1.5109799125352715e-06,-1.6071275028870206e-06,3.414419792513305e-07,7.961428991449997e-07,1.8774654769932262e-07,-4.592858626732153e-06,4.992012550243404e-06,5.568908017254624e-07,-3.583397829573487e-07,-1.0677155845214567e-06,-4.853599217186464e-06,1
-1.468166297702589e-05,-3.945989459741261e-07,-1.8989610551862948e-06,1.1832170643804633e-07,-1.5544054364624932e-06,-2.3127143589465605e-07,-4.232932846113659e-06,-9.30384213875787e-08,-2.5375139289748997e-06,-4.2037185959648486e-07,-1.1272477646706875e-06,4.720768167479849e-06,1
-1.7251265415906553e-05,-1.0640414581368322e-06,-8.50795777026498e-07,3.0174493938782015e-07,-2.324356575327293e-06,-1.406673374591372e-06,-5.014344194754413e-06,-1.4166058416514416e-05,-1.6877604133796641e-06,9.077572992922871e-07,-6.578057603343481e-07,9.721536063031898e-06,1
-1.954145579897339e-05,-1.6530500121126254e-06,4.1706946156332526e-07,-3.442670142477108e-07,-1.3347912260566356e-06,-2.7902213059143493e-06,-5.844234836769684e-06,-2.1113805613681474e-05,2.0401349869132555e-06,3.414260160519296e-06,8.313269123892008e-07,9.13785630913963e-06,1
-1.9737208197313963e-05,-1.2112865147947915e-06,9.430541932022452e-08,-7.587095394165109e-07,-1.7527779159181714e-06,-4.287055338799789e-06,-3.864471526502756e-06,-1.4208520270006856e-05,2.8275471070536247e-06,5.587594260517325e-06,1.023950816269836e-06,4.812030119854628e-06,1
-1.8804930899581325e-05,-8.57838124511786e-07,-6.536279517933785e-07,-5.24447018068528e-07,-2.6632430694256426e-06,-5.212584736343839e-06,2.8430788147669235e-06,-4.397081723096571e-06,1.4059982218787672e-06,5.090557947699204e-06,-3.586342335619169e-07,-8.067253811326106e-07,1
-1.6707833514273428e-05,-4.7152238695640507e-07,-4.0779192783645893e-07,-4.679587905465625e-07,-1.4401482529088743e-06,-4.547476345125558e-06,8.309571440185189e-06,1.0029133661645526e-06,5.5298595561701135e-08,1.3564408918323143e-06,-9.427255946869085e-07,-4.715450322533889e-06,1
-1.26054233414626e-05,-4.1458097916135464e-07,1.5639920306802015e-07,-9.402752658489055e-07,-4.486012174845887e-07,-2.254736504558913e-06,7.715502349279424e-06,2.84672627029976e-06,-1.2097967055911507e-06,-2.523045095764722e-06,-6.235341387661599e-07,-4.569118284999774e-06,1
-6.823653416084871e-06,-5.605196983487241e-07,1.2295087074085733e-06,-1.6193875124726028e-06,5.140298613338217e-07,2.412285981975133e-07,4.814591265426789e-06,2.369050073515066e-06,-2.664016346898476e-06,-4.517684593868682e-06,-1.345112656556172e-07,-1.449835115415404e-06,1
-4.2768438616400934e-08,-2.740077214845476e-07,2.2879472335384384e-06,-1.3856112796929224e-06,2.467369183173379e-06,1.8683373050158487e-06,2.4783841019358423e-06,3.697930575515826e-06,-4.254247172702569e-06,-4.6641903310184525e-06,3.987615992350844e-07,1.946892246114618e-06,1
5.894234439813518e-06,-5.016946527056979e-07,1.6193574259823813e-06,-5.612418568726474e-07,2.2749571544063145e-06,3.176197960918257e-06,1.042352149162975e-06,7.388064688325476e-06,-4.754070188837e-06,-3.4870260482031764e-06,1.325158951517001e-06,4.1537343994129435e-06,1
8.48119348402131e-06,-1.1319184888863366e-06,4.795493758186579e-07,3.2238928812736964e-07,1.6183993247429797e-06,2.984091278109001e-06,1.911979125192281e-06,9.634631617325256e-06,-2.6118658574742072e-06,-2.5461957645561815e-06,2.545877146386731e-06,6.704842346297541e-06,1
7.578068355954995e-06,-1.5426970904657947e-06,2.63021137914817e-07,1.1298795255012924e-06,2.399520307398031e-06,1.167372698435897e-06,4.19578813913325e-06,1.0822895225732692e-05,1.3892880650371885e-06,-3.016692390517522e-06,1.3262940807468584e-06,9.983391378295589e-06,1
5.050816587760302e-06,-1.998783921805711e-06,-2.3677915990171967e-07,8.976526487448444e-07,1.1904722821486707e-06,5.212640008698402e-07,4.902205672184522e-06,1.0372334583963755e-05,3.654917325971505e-06,-3.92696972866011e-06,-1.7533731926923624e-06,9.146680940879585e-06,1
2.8385332768006355e-06,-1.5332340817479537e-06,-7.196218017974399e-07,3.1585702335764545e-07,-9.244951314241159e-07,1.24071812923074e-06,2.4394495040812553e-06,8.15685555899726e-06,2.702195640036359e-06,-2.071007212267827e-06,-2.123509974529343e-06,2.3327119443548694e-06,1
1.811289432376447e-06,-1.392963071406434e-08,-6.199389685872625e-07,4.926439584811824e-07,-1.3369195460560478e-06,1.4140740692588401e-06,-1.5189907545928239e-06,7.265775505599979e-06,8.88881587187401e-07,2.8536929071561426e-06,-1.0179181115436806e-06,-4.319127931713062e-06,1
1.5261259912398798e-06,3.0035829528354553e-07,-8.77629476295262e-07,6.595162843676701e-07,-1.8137044997636087e-06,6.843414941136695e-08,-3.868585577800323e-06,4.946417478791222e-06,1.449243888092741e-07,5.654405123194468e-06,-1.0388001541361936e-06,-7.062567014214866e-06,1
1.2129840582557367e-06,5.034103274795153e-08,-6.198408077258919e-07,4.757439797816688e-07,-2.28684759759317e-06,-1.7810089002750662e-06,-3.7043960938240874e-06,-1.1546817023708658e-06,3.08403744060941e-07,3.927726307982499e-06,1.5203321069400354e-07,-9.796711515299521e-06,1
1.4144122930729011e-06,2.2232265612686935e-06,5.443941678714984e-07,3.446201991648373e-07,-1.4803120318292907e-06,-1.4654946305814834e-06,-1.968460861851272e-06,-6.8825753107393755e-06,4.82490066080359e-07,1.3221546629376018e-06,2.043191930943699e-06,-1.3233141284314433e-05,1
3.091872897936663e-06,4.9564714405974865e-06,1.482727826623598e-06,-5.4178896721590324e-08,-4.797934429203013e-07,7.806360503528425e-07,-4.6525092139361946e-07,-9.52228547696905e-06,1.5471697223786842e-07,6.655465115343286e-07,2.250679889489816e-06,-1.2613830994021517e-05,1
4.837433354078798e-06,4.662698827142477e-06,1.5005383310796345e-06,-1.2519667826796637e-07,2.4668540840984675e-07,1.6121622436878233e-06,-3.5331869485563315e-07,-8.162981630253329e-06,-6.676640481792488e-07,6.820530409707172e-07,1.459019529323425e-06,-7.3929184001233126e-06,1
5.122328694132493e-06,2.691914465702726e-06,9.741534025390709e-08,9.926798164319896e-07,1.2191881487919602e-06,7.612250086489826e-07,-6.176208558803966e-07,-3.5387370966751094e-06,-7.838855148279615e-07,6.018715833449009e-07,3.20701324448414e-07,-1.3342995066292923e-06,1
4.719892299144103e-06,3.4936263766912033e-07,-1.547342374769566e-06,1.7963552541663793e-06,2.42566273323654e-06,6.966422463236238e-07,-5.644823577271722e-07,1.9560295366935455e-07,8.433143349192566e-07,1.0497977872489038e-06,-5.429492943493582e-07,2.2425880156206615e-06,1
3.604120994739059e-06,-3.118468889577947e-06,-2.464072730161075e-06,1.5188415629141541e-06,3.5137033614784836e-06,2.0410045514952374e-06,-3.23288218812555e-07,-6.917724838028673e-07,2.525021172913707e-06,-4.368229920341084e-07,-9.85443159484725e-07,2.828616172745063e-06,1
1.6451100627046255e-06,-4.461025143041998e-06,-1.869725678093146e-06,7.188184181743301e-07,3.044981329671588e-06,3.355542598058214e-06,-4.199100679960738e-07,-4.939823796829642e-06,2.357587539335877e-06,-3.6178204355089703e-06,-1.3780767725623437e-06,3.006333652305054e-06,1
-1.6969271015190717e-08,-1.5074190913114376e-06,5.89085688543447e-07,-1.2020176767840605e-06,3.320981181119644e-07,2.315668327789268e-06,-8.238993813729233e-07,-6.2514677678374994e-06,9.791443613620822e-07,-3.914014756323435e-06,-1.2235915608759207e-06,5.307933034430535e-06,1
-2.5533568293249582e-06,1.3097333937845107e-06,1.274682367738588e-06,-3.2183673245846984e-06,-2.149552624335655e-06,-7.667174462644909e-07,-4.870648504305746e-08,-2.9361054755187223e-06,2.888388627777335e-07,-2.23434522634163e-06,-8.212149359628196e-07,9.637342643335284e-06,1
-5.926416347078001e-06,3.7794229287706324e-07,-5.965896620994081e-07,-3.257400934692844e-06,-2.7497908726624275e-06,-3.438853957182108e-06,1.562428030842886e-07,1.654490940247386e-07,2.4446373413247516e-07,-1.9012857011649648e-06,-4.428316005369509e-07,1.39410405904008e-05,1
-6.604324656092491e-06,-1.880502641216047e-06,-1.3894423261613513e-06,-1.8646894335833044e-06,-3.053900499367479e-06,-5.086531852387276e-06,-1.6300994067712182e-06,1.2516269115071977e-06,-1.066721746162643e-06,-1.2384688340855735e-06,-1.9529013966976184e-07,1.8216505737075776e-05,1
-5.3631458858843285e-06,-1.7087056198545775e-06,-5.269432877798174e-07,-1.0980415977955712e-06,-3.0850410968020776e-06,-4.294536420512132e-06,-2.4131232883802695e-06,1.7833557837822417e-06,-2.5945031876148313e-06,2.3259299725794416e-06,1.7855244027564702e-07,2.1047285553928966e-05,1
-5.226628304544761e-06,-9.893307136842899e-07,7.416575712249742e-08,-1.4993396455593083e-06,-1.0278081170768151e-06,-1.6157387875488382e-06,-1.5194340944376086e-06,2.257367044716488e-06,-2.262510449074926e-06,6.10108851166495e-06,1.0511818279167057e-06,1.645734322050697e-05,1
-5.5729347882620254e-06,-1.92055872258565e-06,-3.8748510897577573e-07,-1.4735122403531641e-06,1.0879455965000112e-06,-1.056670877369081e-06,-9.496807508710138e-07,9.013714293503946e-07,-1.7588854193336494e-06,5.535667356765218e-06,9.2190251786346e-07,6.40662967383839e-06,1
-5.0285404620490574e-06,-1.6212119646015976e-06,2.0458575862136868e-07,1.4949531967656208e-07,2.2966627866994643e-07,-1.6103111168694985e-06,-3.101720461104875e-06,-1.4703334129360832e-06,-2.3192675763000065e-06,1.2636669758223233e-06,-2.2576390036464264e-07,3.384595675653017e-07,1
-1.4744393861342915e-06,8.617444952093265e-07,2.0039373734285562e-06,2.5684731312925373e-06,-9.647157999665718e-07,-4.6643423941376014e-07,-5.097951471461461e-06,1.833448908687049e-07,-2.2517528758289857e-06,-2.1260495653681736e-06,-1.2289910102609632e-06,-1.0491660220178627e-06,1
4.578992106419752e-06,3.9250000975732485e-06,2.818162593464575e-06,3.752053501382621e-06,4.89236228900815e-07,1.7220239832849178e-06,-1.5738331209782002e-07,4.36920557064298e-06,-8.730695822872025e-07,-9.0556906878996e-07,-1.5865472930501453e-06,-3.281070058016242e-06,1
7.301430153326954e-06,4.552738841338058e-06,3.73239939971638e-06,3.2605450013467745e-06,2.4056204098111663e-06,3.90591943657375e-06,6.474260335396123e-06,5.254997034762872e-06,5.311225642299099e-07,2.232814980087401e-06,-1.0322506075117472e-07,-7.66624461242656e-06,1
4.715675509353391e-06,1.1850524390205448e-06,3.0000246358518777e-06,2.4325607394977113e-06,2.249621398098278e-06,3.6622420403091673e-06,7.012605083979933e-06,2.8308169438461366e-06,8.624690795297319e-07,1.7870889296727584e-06,1.965663228982804e-06,-1.112505680039459e-05,1
1.4023556027987118e-06,-9.246173655888726e-07,-1.4874571227699079e-06,8.639984155894634e-07,7.267971415303799e-07,1.2075823736887587e-06,4.557969854126433e-06,8.937947719701797e-07,7.13841582127085e-07,-8.457117269207062e-07,2.376058428345002e-06,-1.1749115044099104e-05,1
1.370895751881893e-06,-9.796372983002102e-08,-4.533409912931928e-06,-5.063129776057668e-07,8.535555515482199e-07,1.988820382014539e-07,2.2651828919003382e-06,1.4550842082178543e-06,9.43428954599281e-07,-2.4237931703703524e-06,1.2611857963843124e-06,-1.5585704689730994e-05,1
2.6781584346531274e-06,-2.260236207063108e-07,-3.3846812232887757e-06,1.0346073365621698e-07,2.029181221171184e-06,2.0706856666400146e-07,1.9708714418521775e-06,2.1962142525009584e-06,8.562950754282245e-07,-2.7008462256156637e-06,-2.5225345755808925e-07,-2.7428446012293994e-05,1
1.9789290738584384e-06,-4.831790050831572e-07,-1.4699472662046671e-06,3.4560757956743615e-07,1.9050806263724373e-07,3.103542734025912e-07,3.599392098051127e-06,1.5459093803431454e-06,8.960127928655281e-07,-2.0179176831876645e-06,-5.141482639825807e-07,-4.0162773160626226e-05,1
1.963918164670203e-06,7.512250747204028e-08,-2.956231381821885e-07,-7.186303080504206e-07,-1.7430192064152328e-06,8.872672252507425e-07,3.5571339277306076e-06,5.621781682162145e-07,1.8920094546278776e-06,-1.671034004006042e-06,5.661433999580461e-07,-4.686867289421648e-05,1
2.6886060929934062e-06,-4.803568699392839e-07,1.2511427720179468e-06,-1.6233507849964193e-06,-1.1833408895785141e-06,1.691394981962338e-07,1.9954914881569597e-06,-1.221002335917358e-06,2.084491580488853e-06,-2.275396481603864e-06,8.001455698200512e-07,-4.409016334832668e-05,1
-5.457638124829061e-07,-2.1073308303834022e-06,1.8661947157360556e-06,-2.464785735349936e-06,-2.637044458318089e-06,-1.976479806000833e-06,-1.0867712314637303e-06,-4.214802013206951e-06,1.4126666322479887e-06,-3.351877978528694e-06,-4.5084984489331415e-07,-2.5533044091953234e-05,1
-5.254511062769259e-06,-3.0948796958051467e-06,-1.3648761205926408e-07,-2.630641180295811e-06,-3.710302944135326e-06,-3.42433434313811e-06,-5.977116212107474e-06,-6.843483297118416e-06,1.205458251859165e-06,-3.023316608099389e-06,-1.5018308794818655e-06,8.261289752934734e-06,1
-5.752898403114289e-06,-1.9495684259038283e-06,-1.6048884318379764e-06,-1.6937587540510099e-06,-1.3491187232573432e-07,-2.4282447135145376e-06,-8.044008623741737e-06,-6.5399112281777095e-06,6.674704032895683e-07,-2.2113420294656887e-07,-2.1591654346879006e-06,4.516310105136228e-05,1
-2.0020644264746097e-06,8.079814476922175e-07,-3.668190303436336e-07,-5.292977333997774e-07,2.970038936551516e-06,-2.387375467791308e-08,-5.077789970438587e-06,-3.7996585626644656e-06,-2.26078315086943e-07,1.971189347034975e-06,-2.585140636140413e-06,6.8115886544856e-05,1
1.5463355831271715e-06,2.645593945843039e-06,2.4106361513998506e-07,4.664450086230949e-07,2.249986108569405e-06,1.4803842758667841e-06,-4.835116603375003e-07,-1.1128211604896018e-06,-8.283579060763676e-07,2.249699357558295e-06,-1.4069803078120971e-06,6.56022853115763e-05,1
2.094567522780219e-06,1.542608115780106e-06,-5.446043060967906e-07,1.3849651401668617e-06,7.369862402008732e-07,2.3148386676859874e-06,1.6343761274014228e-06,1.8540549648553486e-06,-1.2617650446957677e-06,2.257099741877497e-06,6.10723477576587e-07,4.407052757993054e-05,1
1.1515855697121715e-06,-1.052716960426307e-06,1.123311195119323e-07,1.5573589756956293e-06,6.376376532131496e-07,1.479439652122658e-06,8.390005447377956e-07,4.116562032378856e-06,-1.345957411706937e-06,2.5639869616211068e-06,1.8569948054415122e-06,2.1015101282301855e-05,1
-1.8305720590873345e-07,-1.1959053028899415e-06,1.9363053226394786e-06,6.376505507448766e-07,1.0339719084163585e-06,-9.05876913807091e-07,2.8845319755933855e-07,3.969775883767017e-06,-3.8735709846775087e-07,3.493128109921664e-06,1.8114478068804644e-06,5.4670328884972975e-06,1
-2.869113845697067e-07,1.463936971755921e-06,3.548309708093785e-06,5.571748595268845e-07,3.1606335015513585e-07,-1.1559146005048486e-06,-2.109044050983262e-08,2.544395043321298e-06,9.442049293892799e-07,3.594501638954741e-06,8.050543876362904e-07,-3.495759066269934e-06,1
5.582129541937243e-07,3.686347990585755e-06,3.5172286738590643e-06,1.1391633705497449e-06,-3.7195289079130606e-07,5.3832758794250075e-08,-1.7900747069464445e-06,8.488471961755892e-07,4.0112946994209664e-07,1.6472406750513015e-06,1.219811652483377e-06,-8.322049452000579e-06,1
-1.1185426626240597e-06,3.132018291797921e-06,5.173585829411775e-07,2.7496219976957835e-07,6.967854628619897e-07,9.486870472562381e-07,-3.148196319602509e-06,2.7430579411816667e-07,-1.1066655879084847e-06,-5.157660214471632e-08,2.6452125363058486e-06,-1.1620039009906691e-05,1
-3.0977837861334188e-06,2.877444554499964e-07,-2.602341330762454e-06,-2.246208534747466e-07,1.4912917766136517e-06,2.1578180747054667e-06,-3.46525415783429e-06,1.6956130662139623e-06,-1.666445135453067e-06,9.987215246982422e-08,1.4935298346838863e-06,-1.3992424091369643e-05,1
-2.783466676339566e-06,-1.411023970190466e-06,-4.018813043684939e-06,9.93311033941049e-07,7.22166717932927e-08,1.7633644775713287e-06,-2.941166371921903e-06,3.1375972724502324e-06,-2.0247331570283135e-06,1.2119457852960966e-06,-1.0628695014671012e-06,-1.3691862686804e-05,1
-1.1493582619158057e-06,-8.450410368761936e-07,-4.597903649674671e-06,1.343539384649038e-06,-2.029256334761703e-06,-6.466654434286455e-07,-6.650644980155732e-07,1.673589259868452e-06,-1.6959039626463161e-06,1.3125866067057422e-06,-9.527874199845333e-07,-1.1222022223899143e-05,1
1.3252273717226643e-06,-3.6750348980918416e-07,-3.2590491429589783e-06,-1.5441155909056157e-07,-2.969961218998584e-06,-2.4674155302719476e-06,1.2919801332791038e-06,-2.583924181178759e-06,-6.698551906042432e-07,-5.50405415308583e-07,4.3405158556328245e-07,-6.327728746007095e-06,1
1.6045201840903899e-06,-4.609505985430388e-07,-4.0864785527436795e-07,-1.0743896365398295e-06,-2.1491364193379547e-06,-2.7316675897563285e-06,2.0728963263058036e-06,-4.5424778801503555e-06,-1.2864756790553142e-07,-1.995467644913029e-06,-8.190770830767661e-07,1.1347987523056572e-06,1
-3.0369845324841094e-07,-7.915978772324717e-07,2.151928161146142e-06,-1.1364388803777955e-07,-8.118592117696996e-07,-1.783098287278876e-06,2.726484830277533e-06,-2.249772319597199e-06,8.617118061961093e-07,-1.9849979315369633e-06,-3.6286815832204813e-06,2.944645944975841e-06,1
-2.1070087220875396e-08,-1.6738863744975697e-06,3.486192342114897e-06,3.123829408245998e-07,-4.2555983985562435e-07,-7.074263640795504e-07,2.2838413727770255e-06,-9.784310866920133e-07,1.4649223452065276e-06,-2.072667050655829e-06,-5.072921163379588e-06,-5.003557802375003e-06,1
2.3937432147769155e-06,-2.237506709459667e-06,3.217857666060927e-06,-1.433983208082516e-06,-6.487764990613682e-07,-1.9700432987980053e-07,2.153277270291342e-06,-2.9629664164328148e-06,4.6400801243645604e-07,-1.669315077915925e-06,-3.672321770208269e-06,-1.1420865915446228e-05,1
3.169445175213242e-06,-2.08680169955449e-06,2.444524970657502e-06,-3.431719847292172e-06,-1.3478973110524548e-06,1.08824583111544e-06,4.2033034673396035e-06,-3.6459125657347357e-06,5.76567523736012e-07,-8.859329089247027e-07,4.342595456246283e-07,-1.0232959454356513e-05,1
9.846769801005153e-07,-2.131905476844369e-06,1.3059389740700735e-06,-4.008443254036187e-06,-1.4451319381538326e-06,2.926653620444323e-06,6.468532075757831e-06,-4.92763199023675e-07,1.6965626865191056e-06,-1.6363542799646729e-06,2.828792968347491e-06,-7.875158404120541e-06,1
-8.091609403565284e-07,-1.8328102191714144e-06,-7.57648338949872e-07,-2.6135135606205432e-06,-4.618563071510253e-09,2.751498526345318e-06,7.234123605599724e-06,2.2843990473296908e-06,1.7944002568774037e-06,-4.335216925084419e-06,1.8560208392177357e-06,-6.763813400914048e-06,1
-9.195723682503086e-08,-3.271949594622091e-07,-2.3438898394110543e-06,1.3647335348074815e-07,1.335128314399813e-06,1.0397728863496142e-06,6.83713046542394e-06,2.1744192601547155e-06,1.7602466322512853e-06,-6.84835915988714e-06,2.07250114259448e-06,-6.762921919605729e-06,1
1.3289514124749964e-06,1.4858870591668043e-06,-1.939650645561211e-06,2.035591946227746e-06,1.7848042406172007e-06,-4.872577174618839e-07,5.148770547491801e-06,3.0446467317494673e-06,-5.3704091385456876e-08,-5.282973477439553e-06,3.802771282707342e-06,-9.012306880111234e-06,1
2.412907971222964e-06,3.4426906918200608e-06,-1.797543372722528e-08,3.049944815113845e-06,1.7067575640275694e-06,-1.5595492685805e-06,1.508482853571694e-06,4.652343777914653e-06,-2.888895833746293e-06,-2.97523733767355e-07,3.0052471070427336e-06,-1.07713551820148e-05,1
2.59932727706262e-06,4.207087440060747e-06,1.5679847817961348e-06,3.6617862872574736e-06,2.5395287129590687e-06,-6.618640792326819e-07,-2.577184381840358e-06,3.7531629106309767e-06,-2.9423290074010553e-06,3.4134111278081093e-06,-2.4507816066873173e-07,-9.69119519868794e-06,1
1.1432207326667119e-06,1.999781890981721e-06,1.436317009040839e-06,3.345813553748422e-06,4.279986648446971e-06,8.252343754079961e-07,-5.767747097360467e-06,3.080242667642038e-06,-1.4146917528625143e-06,4.094675553996712e-06,-1.5219773638726683e-06,-6.192308934392207e-06,1
-1.1268695827862746e-06,-2.878021888245863e-07,-2.2813264212263133e-07,3.229494109094657e-06,3.3406083318762984e-06,7.318565517026722e-08,-8.939902454296592e-06,3.070048659645663e-06,1.5008197406375292e-06,3.3717893802844367e-06,3.2871408912901764e-08,-2.312639913772566e-06,1
-2.5304511206763375e-06,-7.311306685464715e-07,-2.328196096645665e-06,1.7059979835151062e-06,3.918274514648334e-07,-1.083204666265805e-06,-1.2173193583424639e-05,1.2412434526966238e-06,3.3080571836061443e-06,4.599332442663545e-06,-1.4181642207480815e-07,-1.1064032679734325e-06,1
-2.3165965457594028e-06,1.3185980575877735e-07,-3.782491382958091e-06,-2.3131226945759166e-06,-8.483300307789674e-07,-1.0979108580549613e-06,-1.4151387392118291e-05,-1.8399181901589248e-07,9.187911197523455e-07,7.707104086705085e-06,-1.7702095374636527e-06,-9.655940295430285e-07,1
-1.5438421514091295e-06,2.2775599602539774e-06,-3.235082844878693e-06,-4.350662722702204e-06,-5.518258363260339e-07,-8.219224280401722e-07,-1.121666096487141e-05,-9.007734529534161e-07,4.490551104440071e-07,8.230696684822026e-06,-6.089205250078898e-07,2.9170222084606973e-06,1
-1.3649299387938357e-06,2.1636271671284973e-06,-7.179943324460355e-07,-3.278827341552227e-06,-1.4127549036692679e-06,-9.864629933776413e-07,-2.4699290693232207e-06,-1.9304862499119707e-06,1.3995088681638506e-06,4.6058693968871406e-06,1.1787454155727359e-06,1.2255300227074364e-05,1
-1.4092553422281939e-06,-1.034446490967416e-06,1.2960711159134828e-06,-1.3497059339568959e-06,-4.105745011913285e-06,-4.919156738464323e-07,4.61615884842886e-06,-1.623820643294608e-06,-1.2344308672815434e-06,8.213012631609543e-08,1.316829205802153e-07,2.8551655034879516e-05,1
-1.7090679646809168e-06,-2.6134057668316947e-06,1.5373915742598846e-06,6.448095745736065e-07,-3.672904337996738e-06,1.2877643045344514e-06,4.871583063570811e-06,-2.067118387600073e-06,-2.657199109439946e-06,-1.9042398010703027e-06,-7.674501003032741e-07,4.7744291460362093e-05,1
-2.724611452449621e-06,-1.9322768092018053e-06,7.259976903322999e-07,1.5133228873258935e-06,4.732063393416769e-07,1.7838461232983452e-06,3.2769668347135404e-06,-4.6804845781733886e-06,-1.6105560105656822e-06,-2.4119445729764236e-06,1.8755100378402436e-07,5.1615933744457994e-05,1
-2.8507049906302007e-06,-6.63068935887228e-07,3.2257198535494197e-07,1.3760484850956457e-06,2.016348485903975e-06,1.7130695082133567e-06,4.905541153885371e-06,-7.0545461053341696e-06,-6.288061258770892e-07,-4.146700094356793e-06,-5.060708721735299e-07,3.0732907102558855e-05,1
-1.3246939022126723e-06,-1.8853559037854507e-07,1.7649059995586346e-06,7.898697418502202e-07,1.1116085533147448e-06,1.8544136933843099e-06,5.662428164146287e-06,-9.390302203798208e-06,1.1527091991070972e-06,-6.345429711016365e-06,-2.4673741648654192e-06,1.253566860375268e-06,1
-8.789314067633943e-08,-1.5136770581481721e-06,3.6538459965138556e-06,-4.1668587783129304e-07,-1.2842938354189698e-07,-4.454907157289037e-07,2.8869766588924922e-06,-1.016904558388924e-05,1.3441644804747273e-06,-6.186891443860852e-06,-1.823489616284355e-06,-1.878919145569249e-05,1
1.9866239523653306e-07,-1.472544488117404e-06,3.966067738079984e-06,-1.0580416156733278e-06,-1.5373503741419285e-06,-3.2183853514102505e-06,1.6277205617609257e-06,-7.170142211116246e-06,-9.356564032035462e-07,-3.0965619682255317e-06,9.352239009356161e-07,-2.533155516736984e-05,1
9.331639890614933e-07,1.8751024485553208e-07,2.9786663450972887e-06,-9.517726954917797e-08,-7.948698442537181e-07,-3.5781919176415293e-06,1.5036332472177293e-06,-3.485758644594873e-06,-1.7716791840240909e-06,-5.435613003981978e-07,1.913309966173151e-06,-2.407501487549029e-05,1
2.196629908158304e-06,-1.5080222598069133e-07,8.387911791506111e-07,1.3599264417576333e-06,1.361864803539172e-07,-2.102274332753726e-06,3.5839293123417773e-07,-1.3134437836584407e-06,-8.192023674500691e-07,-7.211273270883461e-07,8.1846649682609e-08,-2.238779083183361e-05,1
1.465036514557013e-06,-6.266354653823939e-07,-1.7487730818969818e-06,1.394680930228811e-06,-7.473188472120623e-07,-5.756803251680828e-07,1.6427957246728477e-06,5.539997817442296e-07,-3.932753780571392e-07,-2.6608122604491473e-06,-1.0054446126996278e-06,-1.982209490243915e-05,1
1.2484804378616342e-07,1.1897451953426472e-06,-2.834777033454732e-06,4.807441501658475e-07,-1.1106743476225942e-06,-9.898706641661841e-08,4.362287361292426e-06,5.041896352228377e-06,6.616964667726879e-08,-4.244272881400071e-06,-3.999285112652335e-07,-1.4079320368337085e-05,1
3.3697713734306643e-06,2.767399299364348e-06,-2.1890200831302964e-06,-1.9550656031506174e-07,-1.481500088270272e-06,9.288172079436845e-07,4.929579337611258e-06,1.2873505423092176e-05,1.5541784530232038e-06,-2.237484730001398e-06,-9.96604566268135e-08,-8.459487346195817e-06,1
7.83312399513809e-06,2.1389045115270395e-06,-1.1576585353996655e-06,-6.443438820030845e-07,-2.277105737696116e-06,2.805745079477178e-06,3.8067434254504316e-06,1.9102135088968245e-05,2.812322446534683e-06,1.6946962274217026e-06,6.026188411116625e-07,-5.723503374312655e-06,1
6.488279265629935e-06,3.2135529552162993e-07,-1.2877936515292263e-06,-5.398657283646749e-07,-1.6010194223317565e-06,3.478183334144803e-06,1.7625507278037012e-06,2.1365201690749645e-05,2.6835856018558194e-06,3.7070287250327304e-06,1.3227168226609655e-06,-4.3454414690853635e-06,1
1.3494655712328859e-06,-9.321031854259463e-07,-2.8356274798925854e-06,-7.201850021531083e-07,5.790899392265891e-07,2.2149505245422913e-06,-5.424676482610845e-07,2.08516337057854e-05,1.450404146541986e-06,4.4222486092889215e-06,7.340343891631208e-07,-2.0829198965913846e-06,1
-1.5830689110979281e-06,-1.436903458953601e-06,-3.3839523453432046e-06,-1.2185339152458375e-06,2.572352447147273e-06,1.401656939709611e-06,-8.468964950279754e-07,1.6511137855353643e-05,-5.111120751748197e-07,3.894782153440731e-06,6.878896409083791e-07,5.100875634437172e-07,1
-4.2882741380859993e-07,-1.9194237351549024e-06,-1.6606452264291304e-06,-8.081145027635759e-07,2.307163223534616e-06,2.640217979054811e-06,-2.9334419679903406e-07,7.872199659318264e-06,-2.3117132585960218e-06,3.1691465962650416e-06,1.6430743356308468e-06,3.0223023884337296e-06,1
5.427406436032747e-07,-9.909946345945984e-07,7.137673173550961e-07,-1.0496170692013394e-06,1.2747308636455574e-06,2.3395642691412566e-06,-2.2640426691260156e-06,-5.996105480320617e-06,-2.072821034458596e-06,4.513677171365794e-06,9.75169296497789e-07,6.479473814053159e-06,1
-2.385373839193806e-06,1.0241090543020978e-06,2.1268961324776e-06,-2.4681961616808335e-06,2.528414158112268e-06,-4.380034992353421e-07,-4.987702565853051e-06,-2.32834733468631e-05,-7.126337786402113e-07,6.4628914386281444e-06,-1.3475758879941182e-06,1.0037824334280173e-05,1
-5.949889053077746e-06,3.9960942660841085e-07,1.7288886490447613e-06,-2.557305233653006e-06,3.326644077057727e-06,-2.624575982517963e-06,-6.967756113520232e-06,-3.1728226836279535e-05,-1.1781206047425544e-06,8.515255330667324e-06,-2.5961465286636417e-06,1.1967136327266708e-05,1
-6.10256856505005e-06,-1.781508522569337e-06,3.4721425135705717e-07,-6.096955094827769e-08,1.1569692715237807e-06,-3.5108259472197213e-06,-8.301883161307124e-06,-2.3301646267031385e-05,-1.7412731065369255e-06,1.070249089934315e-05,-1.609397662120503e-06,1.0283094101070336e-05,1
-2.143400904890098e-06,-1.7991565924730276e-06,-5.800536803209096e-07,3.129715066295302e-06,-3.005271913418034e-07,-2.711382809955102e-06,-5.778105337524897e-06,-6.597231086920176e-06,2.655056243279229e-07,8.905946853775173e-06,1.5382176910719265e-07,4.393961274924847e-06,1
2.6153365611821787e-06,5.502057179362583e-07,4.325172353949604e-07,3.1564360560353377e-06,5.327907121866943e-07,-1.973483602491562e-06,-8.062338217756435e-07,6.613192516614179e-06,2.1645512608300654e-06,-1.7403243492228242e-07,5.248660023870773e-07,-1.5247194112967878e-06,1
2.889879154206396e-06,3.743969162454977e-06,3.645004522298956e-06,5.11947927038138e-07,7.872218569209958e-07,-2.628708067641931e-06,5.179887508964474e-07,7.985412597314849e-06,2.156932991479602e-06,-1.220203629288698e-05,1.405488711614916e-07,-3.7531718687145595e-06,1
-7.851729265682477e-07,4.804866535411727e-06,3.983620826549037e-06,1.9816333031133268e-07,-2.808339541057032e-08,-1.8683222889398658e-06,-1.9472600558624663e-06,-3.703245684357882e-06,1.6123548837043993e-06,-1.9075198792896698e-05,3.755515748378614e-07,-3.7708978079722616e-06,1
-3.966759218842764e-06,3.509545800021001e-06,2.1372277843170035e-07,1.920085590568992e-06,-2.474043184079594e-07,-6.476889822535721e-07,-3.2560809020351112e-06,-1.3957811709129028e-05,5.848043215260424e-07,-1.9190008658071758e-05,5.03657611565911e-07,-3.6105546269847962e-06,1
-4.4040000872465566e-06,2.0281814908299253e-06,-1.9189742998786173e-06,1.576634220776908e-06,1.1414019707367911e-07,-8.050872704875111e-07,-1.436936980415114e-06,-1.0248976402016237e-05,-1.792515560291814e-07,-1.5836737476104028e-05,4.4388669206204416e-07,-4.1656360039724944e-06,1
-2.876031762092535e-06,-3.2364069919356704e-07,-2.1806929005315693e-06,8.835494387266909e-08,-5.171054906344125e-07,-3.3444379189909954e-07,1.4213586884113092e-06,7.681382793949426e-07,1.9205474853663806e-07,-1.0543621956667877e-05,-8.792365916993447e-08,-5.735919707068377e-06,1
-2.3492571701045874e-06,-3.923314233710185e-06,-2.5609394642802077e-06,-1.641459515259351e-07,-2.373797403279542e-06,1.4781167144451333e-06,3.316836995262697e-06,7.52486464415333e-06,-2.1812098845251553e-07,-4.1438642980150655e-06,-6.583490381992417e-07,-5.8360021142064985e-06,1
-2.3529497133265255e-06,-6.6896616360247315e-06,-2.0320494941186007e-06,-5.039486549933128e-07,-3.412862310324814e-06,2.6665846527166486e-06,3.9385056808344205e-06,7.712871551157033e-06,-2.2656992384575187e-06,2.0974121928011972e-06,6.185226355496304e-07,-3.7944916240976705e-06,1
1.9227316509533166e-07,-5.705873756838333e-06,-2.605369152690006e-07,-1.3075776671314917e-06,-3.104485425743527e-06,8.990362733300959e-07,4.354085618065934e-06,6.156190060731717e-06,-4.008687817877493e-06,6.271240692350496e-06,2.29441727012228e-06,-2.0434709805859136e-06,1
3.3769904126074475e-06,-2.5826094750274238e-06,2.2658887484161245e-06,-9.530802854523166e-07,-2.4303199354148867e-06,-2.8213750375218967e-07,5.45163000262955e-06,6.311537786203315e-06,-3.5007925255338297e-06,8.049739337298535e-06,2.101642587687792e-06,1.7241213175939245e-07,1
3.905498827472394e-06,-8.366203396970119e-07,3.3787170238387506e-06,-1.2386894635568152e-07,-1.686839398334659e-06,1.970982444504198e-06,6.830862942845591e-06,7.675702710634204e-06,-1.0869413782971655e-06,1.0103243407422168e-05,5.631059040374098e-07,3.5530057949358598e-06,1
3.148715429936214e-06,1.7952128056134953e-06,3.0019785538690302e-06,2.0032734915291852e-07,-1.0627759816402093e-06,3.3626513171083934e-06,6.5062676882322e-06,8.278172368537491e-06,7.066618435250738e-07,1.2958832909083812e-05,-1.8225817920881655e-06,6.2906065872569515e-06,1
3.9515223515975755e-06,4.556907974257589e-06,2.2956350926760313e-06,6.663126051475579e-07,1.4251737873835507e-07,3.4794588509775166e-06,3.995974130449792e-06,6.60921293708437e-06,1.1139833867152744e-06,1.4249720382121441e-05,-4.1371611092110165e-06,8.449237576801182e-06,1
5.274552158597038e-06,3.935096495337195e-06,-3.8789154146783646e-07,1.2530311408650652e-06,1.649392819701712e-06,2.4881399604598826e-06,3.4010764214592734e-06,5.44310885283796e-06,1.4053954579452918e-06,1.1345133758463683e-05,-3.7861692508021714e-06,1.1040938969679774e-05,1
4.3935639450021054e-06,2.273454676290581e-06,-3.605983001772025e-06,1.1469150176592175e-06,2.2727192590310666e-06,3.6486662501240787e-07,3.850889622085551e-06,4.6796517733824215e-06,1.386821535767268e-06,5.205370108277154e-06,-6.332906523252564e-07,1.491148553381932e-05,1
3.208106309587679e-06,1.2492977327683943e-06,-4.947761519893072e-06,-3.2818082705466825e-07,2.4735116193536752e-06,5.58164083740468e-07,1.1533766203581466e-06,3.6379683801538273e-07,1.0443399316779309e-06,1.4398169871418406e-06,1.7904793909892625e-06,1.776599984087243e-05,1
3.7090168621198365e-06,6.871315820813837e-07,-3.940485134835714e-06,-1.5398266238239386e-06,1.9785830856929296e-06,2.407071469724709e-07,-5.478615662742517e-07,-3.0229559227132315e-06,1.8553972014719705e-06,-7.255223825383941e-07,1.1475523496163004e-06,1.4843797973723208e-05,1
4.25059138489469e-06,3.877865076604665e-07,-2.5180605231472335e-07,-9.426162785858499e-07,5.082372155653852e-07,-1.7937638723414022e-06,-1.1334669745057698e-06,-2.501856112155279e-06,3.670264808170935e-06,-5.867273694468819e-06,-7.264116491596045e-07,8.75392223602498e-06,1
3.577293111869626e-06,-5.85830210073264e-07,2.2843560473198354e-06,-1.1738364275800613e-06,-5.90412620603531e-07,-2.2717134278888894e-06,-5.724708535731607e-06,-3.3511412825177447e-06,3.996159793734272e-06,-1.0414207896667242e-05,-3.66292213815128e-07,3.167620758022881e-06,1
-5.484735861179362e-07,-9.903701507982244e-07,1.3689684824195212e-06,-2.376838134629003e-06,-4.1043676891487043e-07,-2.615926654668459e-06,-1.0817828495161509e-05,-6.778902514055697e-06,1.95417355666605e-06,-1.0071368127811438e-05,1.1890445955928405e-06,-5.936926128936123e-06,1
-7.274787556515876e-06,-1.0080317354459827e-06,3.186280813494873e-07,-1.5345573372923266e-06,4.203302300533481e-07,-3.2875447399208854e-06,-1.2659184728225237e-05,-9.72691060423751e-06,-2.6138275066594185e-07,-6.288145454533944e-06,8.094811017538586e-07,-1.789740660632466e-05,1
-1.1130292098761898e-05,-2.24429758433152e-06,3.960295666422226e-07,7.42198499744311e-07,5.303673886947698e-07,-4.119345121327891e-06,-1.1909819539666454e-05,-9.27033418788413e-06,-1.7232654814910065e-06,-3.7862443408736477e-06,3.116415952550939e-07,-2.445966506889185e-05,1
-1.105286615445969e-05,-3.4201914667368298e-06,3.159020633291985e-07,2.3986055378790727e-06,7.841148680222367e-07,-4.544163999938008e-06,-8.45857827712654e-06,-5.720321461602727e-06,-2.6727568120898025e-06,-4.24286667239564e-06,1.3538916196486602e-06,-2.2298244317496277e-05,1
-7.5567925884439e-06,-2.7328334608611176e-06,-2.023498837037395e-07,1.2151982247354467e-06,1.6643937049905743e-06,-1.776009315555715e-06,-2.1448963674863676e-06,-2.6238174466224796e-06,-2.7513881034481844e-06,-2.526883006378912e-06,1.5542850451054407e-06,-1.6779979747191718e-05,1
-1.2605236583248156e-06,2.127949261166429e-07,1.574309442616149e-07,-2.1160359412144327e-06,4.7500833268330185e-07,2.0612232477789874e-06,4.7496075797873975e-06,-2.486891085518512e-07,-2.332325925303043e-06,2.1524890917816014e-06,7.475990274075414e-08,-1.436901069647263e-05,1
2.5639245004264087e-06,2.8777516423001244e-06,1.584722866324771e-06,-2.724856685417475e-06,-1.5911833864652127e-06,3.2585655340543915e-06,7.141977640577565e-06,2.4285600304305515e-06,-9.670875115194503e-07,5.36667414894603e-06,-4.823018698400957e-07,-1.5240613783529659e-05,1
2.554745855273769e-06,2.2709248645103443e-06,1.6856530733637796e-06,-3.6286845351671145e-08,-5.0415846691229e-07,2.320125359332975e-06,5.345702533320285e-06,4.283790787580444e-06,5.001633147580727e-07,5.821703486467203e-06,9.434011923536948e-07,-1.4969000100450024e-05,1
2.0304780711947744e-06,5.635668197077803e-07,4.7408935143323777e-07,2.9424603479421637e-06,1.6692362567979271e-06,8.505876335306849e-07,4.2849679484720615e-06,5.395203703751624e-06,1.812331994375607e-08,3.3732404762490434e-06,1.560906859593133e-06,-1.0384040033204708e-05,1
7.999285249230481e-07,9.259139478345964e-07,-2.0337811976456893e-07,3.783517993013954e-06,9.860893578544472e-07,1.1185521991756347e-07,3.8219594822703214e-06,6.162808811922464e-06,-1.289889554059413e-06,-3.304807126195995e-07,2.448252286828426e-07,-4.353777311452186e-06,1
-5.433254143797787e-07,1.8056818776298797e-06,-4.0379175674710287e-07,1.7587319131183083e-06,-1.2756472610203247e-06,1.1134984965364447e-06,3.317407071632816e-06,5.044157161931997e-06,-1.917516854585416e-06,-3.393395666176705e-06,-9.202218804818056e-07,-1.7086408120388537e-06,1
-4.145930558070078e-07,5.551437077290647e-07,-9.93292974733421e-08,-3.539694341343027e-07,-2.593182643496868e-06,2.8549979192064172e-06,4.767488906647311e-06,2.1118494244293343e-06,-7.205284099087529e-07,-4.4327869335098055e-06,-5.525379163539754e-07,2.048456349813055e-06,1
4.3883176344739524e-08,-1.8447813751074453e-06,2.4189580758005907e-07,-1.058677267822444e-06,-2.8377959997850765e-06,2.467614758575557e-06,5.378137754585743e-06,-5.024289087128967e-07,1.3560454460884397e-06,-8.809784811813136e-07,2.1508536963871614e-07,1.562238643367894e-05,1
6.213170429330289e-07,-2.4381759458624787e-06,-3.036763508554239e-07,-8.124032411815353e-07,-2.042804606094558e-06,3.4067805519547116e-07,2.316981048468425e-06,-2.475248334601351e-06,3.148908415474387e-07,3.2024991351822728e-06,-5.101627153889949e-07,3.608154749996032e-05,1
-7.3188365453973e-07,-2.666702921034035e-07,-7.331546417875973e-07,-3.4463177917542855e-07,-1.5612870837828452e-07,-4.2389538783565303e-07,2.225526526952281e-07,-3.422513280901333e-06,-1.563377920071606e-06,2.7068449994208893e-06,-1.5473074311284904e-06,5.0378882007189735e-05,1
-4.9020476585609515e-06,1.950493942953165e-06,-6.150600341019345e-07,-8.325610209426092e-07,1.5629608253426841e-06,-3.664243001488898e-07,-6.335123587543044e-07,-2.1602551983607774e-06,-3.894676748411743e-07,1.0164014331764576e-06,-1.496035320575186e-06,4.8590967324444464e-05,1
-5.28620653140129e-06,6.56521670598476e-07,-1.0548531057362697e-06,-7.586983489407251e-07,2.2043484463305203e-06,-6.197458648927286e-07,-4.078321816716517e-06,-4.6688105707413553e-07,7.835818177729597e-07,-1.2671432807444401e-08,-1.552195880345545e-06,2.965165898500882e-05,1
-1.9277894399657665e-07,-1.8603767521131104e-06,-1.4351498173917822e-06,5.391282260064272e-07,2.1828628248315506e-06,-6.734582692786595e-07,-5.903539661618888e-06,-6.584615967701403e-07,1.310691228272657e-06,-1.28656996797405e-06,-1.9773021818262754e-06,2.682084653968147e-06,1
5.223292990903422e-06,-5.43068474752995e-07,1.02503811530303e-08,1.12961020104251e-06,1.4462927146541102e-06,-1.6855757014915856e-06,-5.031353514964612e-06,-1.930654971767668e-06,2.2585385815114984e-06,-6.724369420745409e-07,-1.852151627376803e-06,-1.7090695825698232e-05,1
9.76492589594385e-06,2.0736755340824296e-06,1.2526320615438835e-06,5.029944916331732e-07,2.2495931432641407e-07,-2.6822355480693116e-06,-4.191148390958801e-06,-1.7191398061637043e-06,1.5841979399341963e-06,1.1432499196020768e-06,-1.1910535743546578e-06,-2.3797677949038436e-05,1
1.2423766784596956e-05,8.793510778919408e-07,-4.38404219509303e-07,-6.559257527667745e-07,3.740974969884332e-08,-1.5437100913543717e-06,-6.218866967943009e-07,1.6598625086085728e-06,8.098076825183873e-07,1.3631872298858394e-06,-2.464095115465216e-07,-2.4072066223943944e-05,1
1.2402317066398675e-05,-1.8492944357134496e-06,-1.9912660426178256e-06,-1.0151890441571779e-06,1.7921681265635335e-07,8.060276631443027e-08,3.201543124441722e-06,5.230960895062368e-06,1.3931808078401893e-06,6.838748305512066e-07,1.4357646471129885e-06,-2.1867109928521387e-05,1
1.2449037310773788e-05,-1.739300212155604e-06,-1.0978275649429818e-06,-5.779523767835896e-07,-1.6140120791714473e-06,9.80008201758226e-07,3.037753912615541e-06,4.513589084690086e-06,8.592965008689438e-07,5.035541412642022e-08,2.3651615679371203e-06,-1.6503973181111568e-05,1
