emg1,emg2,emg3,emg4,emg5,emg6,emg7,emg8,emg9,emg10,emg11,emg12,label
-1.1665459607319115e-06,-3.942457745601151e-07,-2.8907016635852607e-07,1.9525072537576794e-07,2.073921001827471e-07,1.5832090418611712e-07,2.414557533446586e-06,1.005097089216262e-06,6.739737456694686e-07,1.2339132410418974e-07,9.712405650231127e-08,1.2956362807489497e-06,3
1.2926704365136694e-06,-2.9845268540870565e-06,-1.4680612443753497e-06,-1.6880394903892035e-06,-8.672542048347883e-07,-1.4557162675429559e-06,3.0283963343240745e-06,1.32880343488072e-05,1.3602587056217067e-07,1.9023117111765736e-06,-7.31372492377293e-07,9.566054248062312e-08,3
-9.016833788367201e-06,-5.9363056504495765e-06,-3.3530918730047758e-06,-2.958466085117123e-06,-1.985329561387747e-06,-2.5624536725744227e-06,4.573240015314125e-06,1.1084025546952433e-05,-4.933791493898824e-07,3.392753265375265e-06,-1.5459184818181552e-06,-1.7592190876376239e-06,3
-1.6488881058093492e-05,-5.71235997950777e-06,-2.8718966325079848e-06,-2.2377999522701423e-06,-1.7402868148956979e-06,-2.806579563646722e-06,5.0574827033233225e-06,1.0510290623050556e-05,-5.031937109736885e-07,5.939020247938544e-06,-9.431499355760835e-07,-3.405251628672664e-06,3
-1.3893217342965201e-05,-2.6045090119847812e-06,-1.0891338161109852e-06,-1.3655536667786515e-06,-1.3102103966281357e-06,-1.95785572104762e-06,6.117148776627271e-06,1.726528455121115e-05,-8.769391205166104e-07,8.346493257816636e-06,-2.528002739849717e-07,-4.523114400474863e-06,3
-9.15884709489865e-06,8.631895140202463e-07,-1.0236347620598276e-06,-6.297814630491717e-07,-2.3575523771602443e-06,-2.261333034789775e-06,7.654004388614458e-06,2.176381660778228e-05,-3.239086525584403e-06,9.00670790718349e-06,6.156864908988744e-07,-3.511555513285933e-06,3
-6.538468307658651e-06,3.864473034099054e-06,-1.0814101471628412e-06,3.806409545533856e-07,-2.8429217503217377e-06,-3.776214709698418e-06,6.045815932954921e-06,2.2497891199560263e-05,-4.829880111631593e-06,9.480413464529789e-06,1.5155122987849065e-06,-1.0210373764950625e-06,3
-5.061171690846759e-06,4.863231492822277e-06,5.838705202465704e-07,3.004288369003074e-07,-1.4554938810096056e-06,-3.817175487208064e-06,3.264452152521472e-06,3.0326607442664407e-05,-4.098001393693215e-06,1.2294485854669095e-05,4.4830652406904574e-07,7.032353990164993e-07,3
-2.1452336009035264e-06,3.819817935121836e-06,3.043602811520213e-06,2.778548599135949e-07,2.316548205834247e-07,-2.781842515680205e-06,2.0553777258536655e-06,4.817319817223222e-05,-9.481768445777333e-07,1.4843897467204355e-05,-1.1981800906609477e-06,1.944543293592498e-06,3
1.8957072564760037e-06,2.8782467474806413e-06,5.00305191625378e-06,9.877865394740366e-07,1.4061109607833468e-06,-1.3191856853500932e-06,-3.704582332057448e-07,5.053199689249016e-05,4.314723728090073e-06,9.551964324031755e-06,-1.477603006866695e-06,1.9266778644551822e-06,3
5.982667251234155e-06,3.1728962393147644e-06,6.8272668478019974e-06,1.4525143898640713e-06,2.271425169854212e-06,1.5547472942537202e-06,-5.34654626573563e-06,2.3803223864025904e-05,5.150998522714423e-06,-3.813717877847833e-06,-1.2001650881526552e-06,6.7442956318051e-07,3
7.558791136944389e-06,3.3064144402059384e-06,8.889412393631182e-06,1.6457512423835769e-06,2.3629822972244766e-06,3.329888649802454e-06,-1.0472127985319995e-05,-6.495366892864681e-06,1.0626863498005994e-06,-1.5789975340522723e-05,-9.392484759535743e-07,8.619580834418142e-07,3
4.954864955933626e-06,6.813289605640767e-07,7.769263707226267e-06,1.287027506696953e-06,1.0630302955447478e-06,1.6306960685558764e-06,-1.2740034595262266e-05,-1.9292438997871117e-05,-2.619396459935688e-07,-1.9570038438841178e-05,-5.317716006150065e-07,2.412032791646718e-06,3
1.09783694132327e-06,-3.6589014387379463e-06,1.2404427777819538e-06,-2.554765145978028e-07,-5.875803440121807e-07,-4.6114162902719414e-07,-9.830439810813873e-06,-2.351282261440196e-05,1.300274683080041e-06,-1.6295391264096794e-05,-9.231782166529133e-07,2.3560000715309447e-06,3
-1.7915541505542393e-06,-6.498962987138153e-06,-5.318076651169386e-06,-2.389779367983721e-06,-1.333364388884164e-06,-1.1528703732756724e-06,-5.247101756626753e-06,-3.2917653488726894e-05,1.7327143859540798e-06,-1.1055955101756886e-05,-1.651244107536527e-06,2.3311715742664226e-07,3
-1.629727701760681e-06,-6.979260538506047e-06,-6.99802677653609e-06,-2.1483168497283165e-06,-1.5010348842711596e-06,-3.4570575492559615e-07,-3.966703918443609e-06,-4.1603715225991084e-05,-9.396277736886156e-07,-6.7649414553107784e-06,-1.2142422820469735e-06,-2.487962004545554e-07,3
9.729928362166768e-07,-4.869547109816341e-06,-6.3376074761233675e-06,1.940056984237585e-07,-1.2897970621994924e-06,1.960122789589806e-06,-4.471684223297818e-06,-3.829880236246134e-05,-6.347018601041587e-06,-2.912563730647655e-06,2.1388622529219924e-07,2.99430771561827e-06,3
2.061650290897597e-06,-2.278681345947289e-06,-6.595259913784451e-06,2.1230604105822633e-07,-1.0541424978859044e-06,2.323152434570515e-06,-4.712014512011447e-06,-2.7535093104568133e-05,-7.906588834164015e-06,4.3959215358293835e-07,2.1232455458171634e-06,7.069418398897525e-06,3
1.400740109872101e-06,-1.7405753014117008e-06,-7.216694404045972e-06,-1.5336687501138935e-06,-7.320724091397684e-07,8.785067707170255e-07,-3.258466078562953e-06,-1.61793027345388e-05,-1.6762546210595292e-06,3.155150684873363e-06,2.904395484548964e-06,7.673739353681254e-06,3
9.7704471414431e-07,-1.4499460598449846e-06,-6.700392047741898e-06,-2.1298674430578527e-06,4.0784574238551736e-08,4.605386577064611e-07,1.357615841986026e-06,-4.467867465575736e-06,4.356337105669686e-06,5.0589961273154234e-06,1.8673572090827255e-06,4.520107370984807e-06,3
2.5159559185732856e-06,-5.002254532793316e-07,-4.451611795812828e-06,-1.438462261952336e-06,1.6650369874582218e-07,-1.3590716539543737e-07,6.87705554058836e-06,2.4411353294903533e-06,3.1273309784112134e-06,5.122841618750217e-06,6.307610419414811e-07,1.1964736959073327e-06,3
4.6014766570446296e-06,9.471175145248481e-07,-1.7719389774252999e-06,4.2035731890268026e-07,7.098023229340895e-07,-3.691612060732873e-07,1.1921944433762305e-05,-1.7446965420106488e-07,-6.80155560459426e-07,4.396620922866554e-06,5.447549833335505e-07,-2.1829426952975346e-06,3
5.157432074791558e-06,3.865449584764454e-06,-1.1205050935903511e-06,1.93352787321922e-06,2.711031195125266e-06,1.874649935910252e-06,1.5810544913896987e-05,-5.68729806510876e-06,-7.99222120347254e-07,3.913640646330189e-06,2.4611383766014293e-06,-5.1175095104647175e-06,3
5.657500347039288e-06,6.842077902473535e-06,-7.145367694609403e-07,1.9691102464942874e-06,3.6038308910198088e-06,4.33875496566981e-06,1.673255127136976e-05,-3.398632489794696e-06,2.317563822138735e-06,3.258095329373526e-06,3.4555293923443736e-06,-3.617352306088115e-06,3
4.423976768235175e-06,6.689613929323081e-06,2.0354976938682166e-06,1.8732403122843179e-06,3.1563203585980642e-06,4.07877188996005e-06,1.601049280495086e-05,8.923712310428382e-06,5.369809221906555e-06,3.2512518073196993e-06,8.355478984869995e-07,-8.249408301302449e-07,3
3.8688261383008126e-07,2.8011572381347406e-06,3.0666310804048344e-06,2.5531122809443217e-06,2.873489320635977e-06,2.4854273688410907e-06,1.498390028575427e-05,2.2620360645689606e-05,6.247369234183497e-06,4.188508177030295e-06,-1.2477758809922609e-06,-2.0913317097541735e-06,3
-3.1440581812921187e-06,5.403992760337645e-07,1.4931765011405661e-06,3.6056937372971956e-06,1.8214211488406667e-06,1.5870570331842207e-06,1.2888076741103802e-05,2.9927234767051028e-05,5.124843590884394e-06,5.2445420555846545e-06,-1.155572929228927e-06,-6.410327683351149e-06,3
-4.371211492808613e-06,3.6040248122892456e-06,1.8459039064497202e-06,2.770105580787215e-06,-4.913802363028562e-07,3.969959956057507e-07,8.66435916603327e-06,3.335469625812973e-05,3.3026389601157786e-06,5.147339023055143e-06,-2.786769441653651e-06,-1.1635018115101753e-05,3
-1.72217675720323e-06,8.037457783782335e-06,5.596369927576245e-06,-5.007764413614447e-07,-2.592668001673366e-06,-2.0335038246972458e-06,-2.246911360891163e-07,3.6954159280258964e-05,1.1894485984634017e-06,2.6871093493950037e-06,-4.6165620913001925e-06,-1.705775570115672e-05,3
2.8058359252639355e-06,7.988337395819994e-06,1.1471886533424502e-05,-2.584970011653334e-06,-3.7562619818712877e-06,-4.735360778819399e-06,-1.186289673258815e-05,3.727025861102068e-05,-1.3517339708411561e-06,1.2907220460247515e-06,-2.9110454927642706e-06,-2.4987389989171754e-05,3
2.689230197542033e-06,-1.8076420892911425e-06,1.0643809160791984e-05,-2.7369906957193373e-06,-4.173333005801718e-06,-6.013086393554612e-06,-1.927940148641112e-05,2.744009513169797e-05,-3.5495441912522527e-06,4.017235536131465e-06,-8.344382470297511e-07,-3.030024020906549e-05,3
-3.0940220406524083e-06,-1.62861440384994e-05,-2.530802065584876e-07,-2.329489649387693e-06,-2.1113138560353428e-06,-5.070391204662676e-06,-2.345002154882108e-05,5.196221426322047e-06,-5.0587536111596235e-06,5.572083169455472e-06,-6.876576565706627e-07,-1.5455336644559282e-05,3
-7.376488644003238e-06,-1.9549592336534025e-05,-6.593340481836832e-06,-4.583743521803248e-07,1.6050982168907928e-06,-3.2435932941242316e-06,-2.7999231094336047e-05,-2.2394911468354452e-05,-5.8067033064153025e-06,1.4764171185527106e-06,-1.2799827407466619e-07,1.8678612271534094e-05,3
-6.146650531578332e-06,-9.431964992337169e-06,-5.192765467092241e-07,1.8021754046760403e-06,1.86957285915527e-06,-2.2135837603314692e-06,-2.5756194765147216e-05,-4.3367512602735886e-05,-4.679391109156797e-06,-5.2513227391934806e-06,1.2320745691068236e-06,4.627212627488044e-05,3
-7.693400709393949e-06,1.9762410141425585e-07,9.579193585564297e-06,1.60516537654668e-06,-9.843598096114198e-07,-1.1509640955338946e-06,-1.2293135679356773e-05,-5.27324921246476e-05,-3.1865196626852516e-06,-9.978596542314154e-06,2.1880068598747907e-06,5.066326304767168e-05,3
-1.5254803943862565e-05,2.3641471078897817e-06,1.3158845505791067e-05,-1.7649636024236803e-06,-2.456770331267473e-06,2.0050145607933132e-07,1.3882406959889616e-06,-5.361843871078556e-05,-2.0956815723741647e-06,-1.1933781171322856e-05,2.0158947662397712e-06,3.506152172559534e-05,3
-1.6468919013870564e-05,2.1388830790217443e-06,9.636323000870364e-06,-5.345527372222288e-06,-2.0792634858831358e-06,-3.7734048291876977e-07,4.2775708125616065e-06,-5.102554134786518e-05,8.638223492033408e-08,-1.4077586234512817e-05,1.4021958729757592e-06,1.291954085895171e-05,3
-8.743824976014625e-06,3.63404776513117e-06,6.274100332296885e-06,-5.930547492178314e-06,-1.1225235716405787e-06,-1.3043536521555017e-06,-5.439948322937882e-07,-5.338256226997599e-05,3.429527086836759e-07,-1.6139539209915297e-05,6.688788373894317e-07,-3.022012691391726e-06,3
-2.164606715319822e-06,5.740980684323374e-06,1.001389765719355e-06,-4.07711046594687e-06,-1.1040637833670543e-06,2.951376695977301e-07,-4.694420786939471e-06,-6.020457444134568e-05,-1.185224161465478e-06,-1.4644642359144458e-05,-5.145325652256798e-07,-1.011581494331004e-05,3
4.51784104655568e-06,7.387671730657624e-06,-9.080551900677243e-06,-8.328242449606843e-07,-2.8364456853775676e-06,2.559280052655113e-06,-3.474554898932181e-06,-5.0745923893262014e-05,-6.448316120279074e-08,-8.16702795288899e-06,-5.545382438947949e-07,-1.0645545114490345e-05,3
1.6157244943999716e-05,6.885012863242397e-06,-1.805653540776265e-05,2.1432492365751235e-06,-2.336550567752409e-06,3.7146055258100706e-06,4.087857580486628e-06,-9.971053295355715e-06,2.468086331514519e-06,1.9407430018472683e-06,2.60357028308053e-07,-8.596122440312477e-06,3
2.4858735465072732e-05,4.03789792769655e-06,-2.3147124938289343e-05,3.099357329964483e-06,2.206946103183013e-06,3.652983141682577e-06,1.2306933535787061e-05,5.2258489269219825e-05,3.7757073177037093e-06,1.0402174737534402e-05,6.285696185112877e-07,-9.196551842023066e-06,3
2.211567655463273e-05,1.2186449723741592e-06,-2.4282670506442603e-05,3.5328876943872835e-06,5.657505169528016e-06,3.263963421510148e-06,1.588124033353464e-05,0.00011070874221843092,3.302556681187759e-06,1.3843130712456837e-05,1.0382910351980436e-06,-1.2590918484669502e-05,3
1.0979892752123152e-05,-2.305248091136948e-06,-2.0945256157470988e-05,4.4488729851236054e-06,6.0073420750748255e-06,3.961638973239074e-06,1.8447269023872577e-05,0.00014183526853411133,2.1197645896764657e-06,1.3926701767744025e-05,1.6580458377006608e-06,-1.5414669614917045e-05,3
8.977306201917106e-07,-5.680327297190172e-06,-1.3220817376083303e-05,4.732171217041356e-06,4.711206284617096e-06,4.565114859134278e-06,2.2249571986336418e-05,0.00014353915412930343,7.889212908634837e-07,1.1485175557567645e-05,1.4241829469855233e-06,-1.4773808456064463e-05,3
-1.6554124173596609e-06,-5.16450335935265e-06,-3.4805736399176018e-06,3.713864456005987e-06,2.471276611540365e-06,3.6785925173908757e-06,2.3260922891357083e-05,0.00012535140674182853,-2.063150419671876e-06,8.63277995244091e-06,-1.0301476970729022e-06,-9.842831390627687e-06,3
5.702118437034907e-07,-1.8099161459358152e-06,4.41467329046254e-06,2.758744266974797e-06,1.368947218138887e-06,9.130669284043723e-07,2.0258287285553577e-05,8.657498200042701e-05,-4.547794187989753e-06,8.071273634533829e-06,-2.667234589980432e-06,-3.4288309435956588e-06,3
4.04303451858189e-07,5.855963971446153e-07,1.1778609798965898e-05,2.3629872564621154e-06,7.46008683927812e-07,-2.1255478751680644e-06,1.5474230410270258e-05,2.41455812039937e-05,-5.149645740857627e-06,7.350887816271229e-06,-1.155103410187313e-06,1.049464055678666e-06,3
-2.865715187094691e-06,2.9140156191885004e-07,2.0901766594748616e-05,4.251423203436391e-07,-8.630704716361886e-07,-2.4254592752833076e-06,7.273560199738309e-06,-5.28979264628091e-05,-4.084387626140486e-06,4.108548569615291e-06,-8.139561223827732e-08,1.9938030020683877e-06,3
-5.852921641687305e-06,-8.638871970953259e-07,2.715116913274298e-05,-2.1153924580420904e-06,-2.475044457389277e-06,-1.7284437077365272e-06,-6.78133992788625e-06,-0.00011883833315210244,4.1200171396698134e-07,3.516313950690753e-07,-4.873372767732374e-07,-1.731251171492608e-09,3
-7.999216014962717e-06,-8.026242634435919e-07,2.3610270433244503e-05,-3.078500791494535e-06,-3.864566562051048e-06,-2.3611914146376243e-06,-2.0009051045051552e-05,-0.0001568815031270506,5.7842087070308345e-06,-2.105347078666917e-06,-1.491796988663728e-06,-2.1579950336827115e-06,3
-8.855352715417065e-06,-7.098989445457755e-07,1.2922762224651122e-05,-3.548272724505375e-06,-4.230410061410123e-06,-4.110050512148268e-06,-2.6168200035456204e-05,-0.00017197938666121262,6.724874585026153e-06,-3.910437766008131e-06,-2.8946832351299334e-06,-8.976334724405206e-07,3
-7.771994417215092e-06,-6.963766259035578e-07,4.688847948786395e-06,-4.3663138432944e-06,-3.874838074522069e-06,-6.448242628368002e-06,-2.9118421632622792e-05,-0.00014642125726659435,4.1255813797733236e-06,-5.878854841463462e-06,-2.8294955311320535e-06,5.55792341317443e-06,3
-6.474436193547388e-06,-4.049685176764013e-07,4.956782724936243e-07,-4.241744632269435e-06,-2.8103169206828292e-06,-5.919035587450392e-06,-2.7308018517007982e-05,-6.521215681903582e-05,2.3998674758387244e-06,-7.605324058010272e-06,-1.2978613851355366e-06,1.3494590432123893e-05,3
-4.789416466710748e-06,-4.350019738058079e-07,-3.166032936766168e-06,-2.1679500627437086e-06,6.998889903518811e-08,-2.49155630756009e-06,-1.6625667122921024e-05,1.987445472064925e-05,2.3115074751846823e-06,-7.859889760887402e-06,4.5091514420426557e-07,1.6980463318648296e-05,3
-1.099983022081831e-06,-1.3865250741245738e-07,-6.864374962139806e-06,-5.052166468630327e-07,1.7993950729251167e-06,4.0341903691118367e-07,-5.7238687780469286e-06,5.589733799641092e-05,2.4070894039087384e-06,-6.029669346121282e-06,1.78625201071e-06,1.415180350995574e-05,3
2.1366074316696058e-06,2.084266109427385e-09,-9.991184562559586e-06,-1.0014925791374395e-06,1.3739063902139016e-06,2.838067994683536e-06,-6.781933543944247e-07,5.618275789404136e-05,3.4933142324198057e-06,-4.097492151192942e-06,2.6573086003623135e-06,7.299001785749932e-06,3
3.2051754565665017e-06,4.803374649051634e-07,-1.0197721161657615e-05,-6.100355425888063e-07,1.6402598550906306e-06,3.4101625148890853e-06,3.2192067990045336e-06,5.0336812078423245e-05,5.543273586727618e-06,-3.166407362194851e-06,3.4970447042580893e-06,1.6132533202957798e-06,3
3.149469211585695e-06,1.9174306604978787e-06,-7.328272301135631e-06,1.912935473985858e-06,2.7145631350486455e-06,2.2547631797098017e-06,8.110987209495997e-06,4.4153194837640944e-05,5.187287917612425e-06,-1.5904792624740037e-06,3.155090123344464e-06,-8.790360903337493e-07,3
8.25131666057488e-07,1.6932520376079045e-06,-5.475005247637703e-06,3.377354410131986e-06,2.9445458241266167e-06,2.2714392139449277e-06,1.1786551553081694e-05,3.563749307309355e-05,1.3013630513868703e-06,1.2256987562955469e-08,1.6871534232078414e-06,-3.5087051923607265e-06,3
-1.7758371023000607e-06,-3.0694783561922827e-09,-5.08353465201001e-06,2.315522199868143e-06,9.467378696695402e-07,1.8657530887768773e-06,1.2815166720301654e-05,2.7445807636562627e-05,-3.4687704590429465e-06,6.616655189865459e-07,-9.355496653451108e-08,-6.436837999305176e-06,3
-2.9336862854878686e-07,-2.0794667923730706e-07,-4.000357993801927e-06,8.568491002014974e-07,-1.8045890896059678e-06,6.154127883183466e-07,1.1090375859671095e-05,2.3676063076915966e-05,-7.674145801983822e-06,8.205774731750153e-07,-1.7114634781837919e-06,-8.061065915620795e-06,3
2.9860515077181764e-06,1.4799072226736688e-06,-3.049041425132346e-06,3.4995867641996154e-07,-2.0747699288553417e-06,-4.35644630236115e-08,6.593006758861204e-06,2.453963624565532e-05,-1.1269270178662278e-05,5.417198039888228e-07,-3.7194630892552055e-07,-8.77285388156209e-06,3
5.186666517828309e-06,2.888199519660504e-06,-2.4012749289853038e-06,-1.1295579071216934e-07,-6.299920731398308e-07,-6.863380168673295e-07,8.505881379883754e-07,2.783557583642999e-05,-1.3586678615623376e-05,1.1708799665129907e-06,2.1594185287438215e-06,-7.358082583158406e-06,3
6.798600488295107e-06,1.8600276172221989e-06,-9.711105540511094e-07,-8.998332582760488e-08,-1.0182271587375837e-07,-1.2622555310779744e-07,-1.9559326740869017e-06,2.825642829264562e-05,-1.3219752820153877e-05,1.490692515736151e-06,1.1922280182943725e-06,-3.836557601264467e-06,3
6.16074119517936e-06,-4.1589014431104346e-07,1.0614330483747589e-06,1.2905321472613713e-06,-6.301713528012497e-07,1.7763340069254055e-06,-2.095225131483016e-07,1.5149228866278753e-05,-9.44588957979941e-06,-8.385985485171809e-07,-1.1188763886014176e-06,-8.294567610871305e-08,3
2.8583170869237934e-06,-1.7346301253818274e-06,2.9963309073264423e-06,1.557415927859263e-06,-1.262310182516554e-06,2.82760772438955e-06,2.0364371119242177e-06,-1.012174995792775e-05,-4.286078564151623e-06,-3.2665195942298857e-06,-1.8458994193091946e-06,2.645436077068668e-06,3
-2.150226825749925e-07,-2.2761330852921787e-06,3.7385501853351312e-06,-7.80931865099951e-07,-1.6825173275557174e-06,2.2424401894945816e-06,1.2378883874906065e-06,-2.943923104163653e-05,4.2812546400020235e-07,-3.442733466483651e-06,-1.7436565348036848e-06,2.549739223935731e-06,3
-1.5466806964424796e-06,-2.0883376501366984e-06,3.7727789582987932e-06,-2.0930680316559873e-06,-1.3202717844153024e-06,1.0312829466450475e-06,-2.87394381126077e-07,-3.374232875942744e-05,3.7911839390289335e-06,-8.630975261488996e-07,-1.2497081598002457e-06,5.143667536480395e-07,3
-2.1250477656709305e-06,-6.252592902898334e-07,4.781801425518992e-06,-6.882985907005968e-07,4.5605361677593506e-07,8.879422147531584e-07,9.229673554128025e-07,-2.941376706098687e-05,4.648013412754345e-06,4.322301381983184e-06,-1.2433044271534695e-06,-4.2946779761545567e-07,3
-3.1327120030617408e-06,1.0716495204379496e-06,5.576123601534375e-06,2.266578784039199e-07,2.384372210232041e-06,-6.535459205781764e-08,3.6977746818551928e-06,-2.509110136501218e-05,6.998392337716324e-06,8.672774953782004e-06,-2.2064142402617803e-06,-9.830934152974042e-07,3
-3.5428359111985053e-06,2.706927428930009e-06,4.1558889364599e-06,-1.3745475940217226e-07,2.555637753575187e-06,-3.909186990306664e-06,4.370677785792712e-06,-2.28194246692249e-05,1.428390003074893e-05,9.739054354112353e-06,-2.017983642466415e-06,-3.1914980518811613e-06,3
-2.4707982458559217e-06,6.040985462573554e-06,3.2781216812906816e-06,1.1892377221081383e-07,1.2840698056497837e-06,-5.6547414742333785e-06,1.9098319951021793e-06,-1.6834928297885733e-05,1.7270141615754627e-05,8.649804054116077e-06,1.4773307627387873e-07,-5.198335586084028e-06,3
-7.623239122818443e-07,8.770202694141359e-06,5.452140311821034e-06,1.0870214072510286e-06,3.6577992511377397e-07,-2.7489250257199133e-06,-9.785593859519276e-07,-2.6438245685017927e-06,8.258381963416528e-06,5.97259535921699e-06,2.3283060173574487e-06,-4.0211147184955276e-06,3
1.5343969574098195e-06,6.462095621001704e-06,5.644573014921832e-06,1.966754409767232e-06,6.66536002553939e-07,-2.772137997598e-07,-2.0264379088316704e-06,1.820284145843728e-05,-2.457232815937457e-06,2.7549818553227693e-06,2.913302762138946e-06,-1.4696011283311765e-07,3
2.159493808342943e-06,2.1122176275183185e-06,1.3103094518753536e-06,2.0598977936159466e-06,1.058306366713537e-06,-7.971895139735531e-09,-2.989945983604e-06,3.554745721996537e-05,-3.906017442836914e-06,1.080034202651517e-06,1.4036918116247684e-06,3.92154003082894e-06,3
-2.6478357160052307e-06,-1.4877945143300716e-06,-3.3162663710488746e-06,7.612122720397873e-07,3.339523658788126e-07,-4.3900077029378426e-07,-5.33112619486949e-06,3.654541573445769e-05,1.2919407958165984e-07,-4.971673347930849e-07,-4.861359627363233e-07,6.105405430009843e-06,3
-1.0760075467903845e-05,-8.795389788069768e-06,-7.888738464989758e-06,-9.603369458567099e-07,-1.8116214460698276e-07,-1.1481491060059158e-06,-6.922124093699737e-06,2.099388016685667e-05,1.6107379116473708e-06,-3.658415512161253e-06,-1.1584143584501614e-06,6.029455871789171e-06,3
-1.5271690067858433e-05,-1.821586145633821e-05,-1.2466977317158138e-05,-1.6247830410262429e-06,-3.8227073526620675e-08,-7.50706917811949e-07,-7.829326126383613e-06,-7.897545137856554e-07,-1.8986566524025558e-06,-6.358590908801571e-06,-1.6250027150096669e-06,5.237457201833003e-06,3
-1.0874896525074239e-05,-2.0948246783241493e-05,-1.2648145506736378e-05,-1.2788051045562273e-06,-1.0993470069463686e-06,4.1533794048764095e-07,-8.668901560651203e-06,-1.638897837144776e-05,-5.658358562989275e-06,-8.297205033867143e-06,-1.395263963601779e-06,4.535043466667075e-06,3
1.0046544934975881e-07,-1.615417068926192e-05,-7.438760672986909e-06,-3.329607149100588e-07,-2.481247195811594e-06,1.1826958967862986e-06,-6.618696457874394e-06,-1.918419966620782e-05,-2.906397325051161e-06,-1.0297194709857854e-05,1.1129997494571653e-07,3.6600981123992658e-06,3
8.55631312696427e-06,-9.649695698514278e-06,-5.453628544419664e-07,-2.390748248781057e-07,-2.0687840647024277e-06,1.7909452469563566e-06,-1.91001658198538e-06,-1.3755940948244925e-05,3.919020928118631e-06,-9.948686951939184e-06,9.919231780348063e-07,2.831194785039849e-06,3
1.0870583221164059e-05,-3.550103036312122e-06,4.500765938368924e-06,-2.5577812915960684e-06,-2.6795605053954817e-07,1.995322426529201e-06,2.5262754504706314e-06,-7.332662680060674e-06,5.894775032947375e-06,-6.6193053941820115e-06,1.3118690704076752e-06,2.568552439644936e-06,3
1.1545915631035316e-05,1.6015765260675774e-06,5.422321035120676e-06,-4.794441215828311e-06,8.476376085987699e-07,2.3015470794140294e-06,6.183275985592919e-06,-4.591134646319101e-06,3.2024105622874614e-06,-3.5962213098356832e-06,1.977819804596194e-06,1.5299002113151117e-06,3
1.1808312978665218e-05,5.270343093717952e-06,2.9350042306813797e-06,-4.038023424589904e-06,-4.0932557329082596e-07,2.1391195148083767e-06,1.0007864848313911e-05,-6.629661287199411e-06,1.7389918407916292e-06,-2.676640824284291e-06,1.1456953505975885e-06,-2.0428772229149236e-06,3
8.508936987049866e-06,9.332598024449522e-06,7.100722907398998e-07,-1.2765570472755815e-06,-2.1746410893051984e-06,2.2753518318511702e-07,1.1960975489627835e-05,-1.219967802054511e-05,-6.463000575083762e-07,-1.3092445070906345e-06,-6.176043350621265e-07,-4.7472732964399565e-06,3
2.9318737545008808e-06,1.443814420458174e-05,-3.25291067693742e-07,8.55651213909315e-07,-1.0874228378803994e-06,-6.55613899899861e-07,7.991170126891048e-06,-1.959192099632541e-05,-5.858260752612139e-06,4.6237207958926055e-06,2.8400582260119767e-07,-3.568519038904429e-06,3
-2.820636843679477e-07,1.983840683653667e-05,-6.533667413857485e-07,1.232874714693866e-06,2.32560638242972e-06,1.135457122029019e-06,1.944250742373381e-06,-2.1660312280698597e-05,-8.531254828585957e-06,1.2796935255397247e-05,2.7414989528832406e-06,-1.0624587127321343e-06,3
5.314484333122218e-07,2.3254925879299852e-05,1.099419271978361e-06,1.8061491677397733e-06,3.515275219878634e-06,1.8250839325978145e-06,1.0954815666345016e-08,-1.0650315827531526e-05,-7.476328986707542e-06,1.4986692740894803e-05,2.808893507430215e-06,1.142091691384276e-06,3
3.742501628674737e-06,2.2981705433654852e-05,4.346834374825932e-06,3.985394624916536e-06,1.0589594194839794e-06,6.76752099736312e-08,-4.0370213905159836e-07,1.124682736873892e-05,-8.462860226903576e-06,9.201245821633562e-06,-6.399807462014924e-08,3.29133391774838e-06,3
5.553794186745452e-06,2.3786646398548517e-05,6.864555915801544e-06,6.180571979545126e-06,-1.906630204505386e-07,-1.3982678252974253e-06,-2.8566932028094706e-06,3.241566998466949e-05,-1.374706280854033e-05,1.0628291100250008e-06,-3.496029045401833e-06,5.45531778404238e-06,3
2.8314008986031266e-06,2.154134251965621e-05,6.4297617274495005e-06,6.337161592114317e-06,1.027616293891507e-06,-1.9405371099835485e-06,-6.112005819885853e-06,4.3492172163353455e-05,-1.5932887291248317e-05,-4.0644236971856166e-06,-4.482123533412582e-06,4.663329370358181e-06,3
-3.239138818330352e-06,2.216198897116586e-06,3.1906716616002688e-06,3.8040716461617837e-06,1.0600745040693856e-06,-1.2948349590207698e-06,-5.746804475699346e-06,3.872584707005907e-05,-7.808230813379976e-06,-4.627074039906923e-06,-2.577882725961298e-06,-3.65818916596527e-06,3
-9.35969679821058e-06,-2.5888652022938645e-05,8.654871387741562e-07,3.6667973873218756e-07,-4.78312657792867e-07,-1.5515744904843592e-07,-1.6272763879564153e-06,1.0164952323405484e-05,6.532764261366775e-06,-2.0165505368959216e-06,-2.9102534455400913e-07,-1.5326280121251345e-05,3
-1.2102111793635044e-05,-3.898158657003104e-05,9.910957703886287e-08,-1.6406222459109688e-06,-2.025552314687213e-06,-1.3960735399006058e-06,-2.291164501617885e-06,-2.569125814963813e-05,1.6568035228943394e-05,1.7898781637096443e-06,2.3761431532425438e-07,-2.170036847266609e-05,3
-8.60985125637728e-06,-3.227616027038468e-05,-9.509016472163467e-07,-2.197474762944834e-06,-2.5166960434273583e-06,-3.0310946094361664e-06,-7.11043467833133e-06,-2.900234025644462e-05,1.5637582101215855e-05,3.252798445756267e-06,-9.237210348811279e-07,-2.0879193748509665e-05,3
-1.6065137214477106e-06,-1.838876708234535e-05,-1.5240324047657785e-06,-2.4409744922392553e-06,-1.6116228020572445e-06,-2.14553687078372e-06,-6.219342035333132e-06,1.0989699440843562e-06,8.134541015360573e-06,1.860624494332027e-07,-1.5734616445098955e-06,-1.5504644214562266e-05,3
1.9760101156668938e-06,-7.966221578093621e-06,-2.501021020058827e-06,-2.0190125920341706e-06,-4.53097211779379e-07,-8.217222943866841e-07,-1.0168523498353587e-06,2.4715326369876525e-05,4.2538109917074584e-06,-4.407069030205561e-06,-4.981011653872985e-07,-8.214597453711624e-06,3
-6.358818253403321e-07,1.6275944975586014e-07,-5.614408533211978e-06,-8.599350268488215e-07,4.023735006644645e-07,-5.134274627128019e-07,3.54313960260534e-06,2.286233927727689e-05,6.242580731435341e-06,-6.949576131447445e-06,1.134944164595349e-06,-1.252321029640862e-06,3
-6.420790720249634e-06,1.1743858450197786e-05,-6.3952322297825815e-06,-1.446734729432363e-06,1.817015087120871e-06,1.533682096653002e-07,7.40357366479644e-06,9.101692835633e-06,9.116866624455157e-06,-5.872582621807108e-06,2.6785861656463634e-06,3.308334193940707e-06,3
-1.0867819333957e-05,1.9036130851955816e-05,-3.688169358571808e-06,-3.6778336144857793e-06,2.953491094276228e-06,2.0266228251991242e-06,9.59309444157724e-06,-1.6050214428817811e-09,9.590579994135699e-06,-2.3863256685465275e-06,3.8106952779935437e-06,6.0188711341249964e-06,3
-1.2438364475684465e-05,9.223703853171735e-06,-5.277672161073968e-06,-4.060117511178749e-06,1.4927584469100022e-06,2.536433381517012e-06,1.0724221363228083e-05,-2.67966937375053e-06,6.542267449354843e-06,5.191775245880914e-07,3.483107273339469e-06,1.0343567192131005e-05,3
-1.2218502348747167e-05,-8.43614181881841e-06,-9.115026173243335e-06,-2.73241203419733e-06,-1.56955259350154e-06,7.91158045084659e-07,8.864813742340423e-06,-8.71500122757725e-06,8.403753695801955e-07,2.5584068831992954e-06,8.367886352805526e-07,1.6809902828156386e-05,3
-8.578089897244108e-06,-1.305998715846395e-05,-3.836278145102775e-06,-1.507950934898255e-06,-3.6412330568169718e-06,1.1774153802665322e-07,1.7906559387888474e-06,-1.9731863055796326e-05,-2.939036946247974e-06,4.10330109290573e-06,-2.4107573582051043e-06,2.3694940116904555e-05,3
2.0782380979531313e-06,-4.553210512828888e-06,9.97633015005027e-06,6.325154064441778e-07,-3.4329885493685723e-06,5.377785557404571e-07,-3.5623087528544192e-06,-2.5595695141997033e-05,-4.656134716244901e-06,4.719168408098279e-06,-2.3148862309714162e-06,3.057613799255469e-05,3
1.6716554476459268e-05,1.1252745472410632e-06,1.9293434831777742e-05,2.5690298144160887e-06,-1.0157158033197743e-06,3.1459850345833704e-07,-4.339419659795148e-06,-2.3739859730643228e-05,-8.723038629735198e-06,4.868396013929707e-06,-3.510452312048799e-07,3.276514536025946e-05,3
2.483059902398966e-05,-2.918910464885841e-06,1.5316867494560758e-05,1.3435896050877052e-06,5.827251264343633e-07,-2.5794864517926723e-07,-6.563504210442008e-06,-2.2009189592068843e-05,-1.2184520317427624e-05,4.208474421360242e-06,-4.3858524890033645e-07,2.736050393460421e-05,3
2.0073450494738958e-05,-1.1516159197322655e-05,3.4328259713117355e-06,-1.0929978073394384e-06,5.894068081329357e-07,-1.6037637583609594e-07,-9.276410228262412e-06,-2.3978137444804395e-05,-1.0534951959009303e-05,2.643080614857007e-06,-6.57457016042466e-07,2.190058724592639e-05,3
8.098351856011018e-06,-1.808898763322917e-05,-6.828150660953071e-06,-9.76713826503503e-07,1.7776213266670787e-06,1.4489431681852043e-06,-7.115112685260228e-06,-2.4484209914429722e-05,-5.666705313953462e-06,1.023282841210135e-06,4.532558832966698e-07,1.8806334387974503e-05,3
5.697228520803276e-07,-1.7060075658604415e-05,-1.1441621480412939e-05,1.4497660464833053e-06,3.730745871698062e-06,2.8700383212565214e-06,-2.365196110576959e-06,-1.8554409063913865e-05,-3.4385918374193786e-06,-1.3027480561047978e-06,1.0448601813250377e-06,1.0330735005698995e-05,3
1.0351184487003074e-06,-2.0351092982955678e-06,-9.745015334528991e-06,3.4074089196838593e-06,4.609518367160177e-06,3.14176066106168e-06,-9.599889930446228e-08,-9.388592158040678e-06,-7.1778793552070395e-06,-4.735809978582252e-06,3.461265232981551e-07,-7.0187286128219085e-06,3
3.1068431650417852e-06,2.4594112054878314e-05,-4.469032726083994e-06,3.3507689881439286e-06,3.9416472579547614e-06,2.6749644714466542e-06,-2.917599441619587e-07,-8.611709894811147e-07,-9.647560793214039e-06,-6.7882290907408226e-06,-6.697098645586519e-07,-2.8457814602584438e-05,3
3.0477044959649712e-06,4.3762361123284635e-05,1.3388392319437958e-07,2.336074109056431e-06,1.8835682047390836e-06,7.19164824009862e-07,-1.4845608699098512e-06,9.511162947075627e-06,-6.5244152395139055e-06,-6.120353271894048e-06,-8.950652414801132e-07,-4.542064809236534e-05,3
1.297534430046917e-06,3.98386197551805e-05,5.311011499400323e-07,1.880226363681863e-06,-3.470038246692592e-07,-1.8756649198036801e-06,-2.809989808581623e-06,2.29963373664268e-05,-1.0128625758452336e-06,-5.7134130291451475e-06,-1.4216523445333714e-06,-5.2942426909535774e-05,3
-1.213660000814653e-06,2.1124887057531036e-05,-2.8025234308605447e-06,2.2647058349933586e-06,-2.123756460979911e-06,-3.6908797654872166e-06,-2.1107825706903876e-06,3.734139598472402e-05,8.592852022826637e-06,-6.013418070715182e-06,-2.053574608733994e-06,-5.174590342832643e-05,3
-2.761389423336603e-06,5.225171598524569e-06,-4.714147419360569e-06,2.095043499714252e-06,-3.12705049256142e-06,-3.848760519770917e-06,-3.07513401746891e-07,4.951405492754039e-05,1.7357512497091735e-05,-4.532825691538344e-06,-6.508499927314167e-07,-4.626655208175505e-05,3
-3.870103080233865e-06,-1.001383070638256e-06,-2.9204404502136014e-06,-1.9257620632576278e-07,-2.9353693369517614e-06,-2.90935491967053e-06,1.6210148376335671e-07,5.7399535308858185e-05,1.6781024531321172e-05,-2.805548190006244e-06,1.5923147893182067e-06,-4.259578623372896e-05,3
-5.30693078356754e-06,-2.513936744661664e-06,1.365265871960745e-06,-3.3074705350460316e-06,-2.8881520486077354e-06,-2.6469914980463773e-06,4.119877974234379e-07,6.004569985820443e-05,1.278011596093955e-05,-4.1608735912157974e-07,3.1712240297540648e-06,-3.879511225087011e-05,3
-6.106240616225099e-06,-6.8998014048278095e-06,5.643084165898823e-06,-4.511354859782985e-06,-3.7245014451188067e-06,-1.7627209709011254e-06,2.055905960525142e-06,5.36215928772195e-05,1.1954001708609944e-05,4.554334015946695e-06,3.8777747779479246e-06,-2.650877587641705e-05,3
-6.152872899285063e-06,-1.4415940433629456e-05,7.723123526472468e-06,-2.6965384528334475e-06,-3.397816528884864e-06,6.013496266066438e-07,7.024949683331895e-06,3.7369783048996075e-05,9.514086106735283e-06,7.272604383402567e-06,1.9111138310281457e-06,-3.0806891400647684e-06,3
-5.982025850112881e-06,-1.9548094789817746e-05,9.281933068379601e-06,9.221573428013253e-08,-5.209433292405357e-07,2.147053699655942e-06,1.3894970899102417e-05,1.3739286203140812e-05,1.3899790859816752e-07,5.901340031805549e-06,-1.5092108794344132e-06,3.0292267820578358e-05,3
-6.534028302220625e-06,-1.8309411798725186e-05,1.1290392434556236e-05,1.6797509219399967e-06,2.4620471117418753e-06,2.3814849337047156e-06,1.5720478573936968e-05,-1.787419960489399e-05,-1.107902192601622e-05,5.515192533171865e-06,-2.8388084522655317e-06,6.900774543158962e-05,3
-7.275919009743745e-06,-1.3247486594333866e-05,9.760579976361238e-06,2.853031671967799e-06,2.472677764317501e-06,1.8073363646065533e-06,1.1575746223436486e-05,-5.013696890908522e-05,-1.3973792267786218e-05,7.004397797442807e-06,-2.8787927322690644e-06,9.605433745890975e-05,3
-5.39406332286753e-06,-1.0021167918885476e-05,2.4487386084314488e-06,2.2070355898556935e-06,4.1358700932345016e-07,-4.627950185550365e-07,5.386664780975935e-06,-6.934500333234758e-05,-1.0363262504993305e-05,7.366883952540099e-06,-2.424859689538126e-06,9.291321360305069e-05,3
-1.3410932490422298e-06,-7.562172001026311e-06,-6.086865278166899e-06,-1.748941395091169e-06,-1.1099137172717104e-06,-2.773732286982569e-06,-1.835008184923308e-06,-6.641037922815925e-05,-9.246642940672174e-06,6.00947726497504e-06,2.6687137636848405e-08,6.299184331118044e-05,3
1.2770940868592272e-06,-2.9146672495763775e-06,-1.1753563460038321e-05,-5.231589065990389e-06,-1.2770833221241918e-06,-3.0859755875933866e-06,-7.785979708566354e-06,-4.3811512605853426e-05,-9.010695382398866e-06,4.083451060950783e-06,1.8947751138350602e-06,2.5014820668554782e-05,3
2.7417945236380486e-06,8.966322713749206e-07,-1.3870581765717632e-05,-5.750293988452553e-06,-5.251598488139321e-07,-2.667922742394819e-06,-1.1124175895991127e-05,-2.7238662834039648e-05,-4.9983379360163296e-06,2.4113260169193052e-06,9.731179409604614e-07,-7.828694709765978e-06,3
4.8304360429082764e-06,1.6624731110744726e-06,-1.1360013947283415e-05,-4.280146208980783e-06,6.125902021532197e-07,-6.723542379711255e-07,-1.2332964534751565e-05,-3.677767543908664e-05,5.41747189203984e-07,8.397050293875996e-07,-1.0949619926300542e-07,-2.910266465289605e-05,3
6.133525892452222e-06,2.5789908709866688e-06,-5.600906968447076e-06,-1.9195855619745527e-06,1.8566567109720752e-06,2.3021185548946185e-06,-1.0417938408807709e-05,-5.592386309957075e-05,4.17897781938945e-06,-1.1138283673455678e-06,-9.006420952461874e-07,-3.839254771673924e-05,3
5.550915526525197e-06,4.860048519076912e-06,1.7758477738123444e-06,8.990427679611048e-07,2.508766605543239e-06,2.4312262560943388e-06,-7.861147559290428e-06,-6.207189218259321e-05,4.128404006507121e-06,-2.4378299713693277e-06,-1.010545725084275e-06,-4.017856066982278e-05,3
4.382418823571516e-06,5.8762819786656125e-06,9.891659422018e-06,3.8057158759878246e-06,2.2833696719766207e-06,1.7929642743025509e-06,-6.8502304211627525e-06,-4.726744312433328e-05,2.633354686318786e-06,-3.4869022811974317e-06,1.1187383425927225e-06,-3.6828871044793735e-05,3
4.796106615474376e-06,5.466901000902447e-06,1.36755989504964e-05,4.530874374686532e-06,1.8761544825232626e-06,2.8110688353523363e-06,-5.286393625328552e-06,-1.3096867548632184e-05,2.738305960805606e-06,-6.787419329520608e-06,2.001900573015394e-06,-3.0455764821850233e-05,3
5.515165862054409e-06,3.7139724795426954e-06,9.782904598157573e-06,2.9556517668423074e-06,1.5241229839087533e-06,4.126560553327372e-06,-3.403739129611308e-06,2.3617690678066685e-05,3.4433922239168274e-06,-1.1438866988874786e-05,3.250565664259962e-07,-2.296632784295283e-05,3
3.0376449289590707e-06,1.6421571429459078e-06,2.297689944365289e-06,2.0418100608852216e-06,1.5097539514128185e-06,5.145935054265016e-06,-1.7513037385282776e-06,4.663311683924972e-05,4.090873314972844e-06,-1.3948829697988895e-05,-9.032631084523638e-07,-1.2894561146824339e-05,3
-8.459518826270426e-07,3.0611144467955277e-06,-2.7753134301633017e-06,1.9684551768122173e-06,2.07659556912417e-06,3.8628770870836e-06,1.2542914031347924e-06,6.054720464505101e-05,3.7565608542142716e-06,-1.2380728783388204e-05,-8.810145781723719e-07,-8.004955930541608e-07,3
-3.2257941062061264e-06,6.129583692011593e-06,-5.070894343471164e-06,2.3825178035334194e-06,1.8658408885733766e-06,6.925545201374543e-07,5.538085077802641e-06,7.485987579913922e-05,2.6813598593787584e-06,-7.73611594420539e-06,7.872517336113369e-07,7.419144021385532e-06,3
-4.818014178834126e-06,6.057426062262256e-06,-6.367037477813342e-06,3.4727775891357437e-06,-5.6012606846869854e-08,-1.275267654207517e-06,9.358141156628504e-06,8.661581568023936e-05,1.8515262582453572e-06,-1.983180038659248e-06,1.5872356455736114e-06,8.728626383353513e-06,3
-5.16837722188784e-06,3.3336511278655713e-06,-5.82213702841712e-06,3.3583230488816036e-06,-2.389894486815184e-06,-2.717611305255475e-06,1.0310117989435337e-05,9.208743329283099e-05,-1.5631572413006312e-06,3.759579702830042e-06,-5.830905527093434e-07,8.761155711042926e-06,3
-3.6577344432576685e-06,1.7416909880796367e-07,-5.183124685095804e-06,2.024165679263214e-06,-3.913887051346333e-06,-4.144341881994682e-06,8.205971278669225e-06,9.314083161139095e-05,-5.296321492228136e-06,6.034635818113702e-06,-1.2969914136231589e-06,1.241054807662501e-05,3
-1.6343085974778241e-06,-3.1016664015054414e-06,-6.806452391704931e-06,-3.593528834912296e-07,-3.7239020463462714e-06,-4.0165841027499815e-06,5.436392799767795e-06,8.562723828034172e-05,-4.7922983740362506e-06,4.130837643447992e-06,1.8275057491636435e-07,1.895335063365959e-05,3
-2.3183453155082982e-07,-5.120812884459809e-06,-1.0809462494119744e-05,-5.050738763731995e-06,-1.8400029610611916e-06,-3.0788795323372976e-06,2.2412466905693006e-06,6.444619435610448e-05,-2.345705893758978e-06,3.568927202373196e-06,9.252077789959895e-07,2.2933129444699367e-05,3
5.544895145654165e-07,-4.151737213884059e-06,-1.2698459326791416e-05,-8.442464419690643e-06,-1.3060622485858232e-06,-2.8426408089840485e-06,-1.4149416582812653e-06,2.9223077788196347e-05,7.836236160155492e-08,5.807767580982742e-06,1.8482916966269989e-06,1.4891027641156139e-05,3
2.2009097242553365e-06,-2.5769818651438383e-06,-5.225194752392395e-06,-7.334935156327955e-06,-3.30095944500823e-06,-2.5358716826721004e-06,-2.2671923868887986e-06,-2.170396399656145e-05,1.296662391650933e-06,6.819905085045146e-06,1.8881514905560564e-06,-2.4859158443912992e-06,3
4.8796232298516545e-06,-9.96250632582533e-07,7.398039420056414e-06,-4.494663906898183e-06,-3.6903660059839292e-06,-1.5150202549449096e-06,9.683413507196034e-09,-8.3177684207797e-05,6.314088082826089e-07,5.339579061201999e-06,-6.954597568569274e-07,-1.4744774179231952e-05,3
6.365659126624922e-06,3.026786574905402e-06,2.041187865461772e-05,-1.6523237394832116e-06,1.5986836472644347e-07,-1.9069541392291727e-07,1.2551395957135715e-06,-0.0001468584526578582,3.1901465455797866e-07,3.901123193033576e-06,-2.821723207093426e-06,-1.8310524449547022e-05,3
5.098766415012513e-06,5.455447958673408e-06,3.33672457846337e-05,1.413986397109862e-06,3.95863274382894e-06,1.441885011102864e-06,1.6839233983422706e-06,-0.00019695555155479407,2.45446244358323e-07,3.887277792455793e-06,-1.8000410285767457e-06,-1.9824466833607817e-05,3
6.112499367440648e-07,2.2155448786415264e-06,3.0562441891350656e-05,3.6021436902949886e-06,3.428458415154445e-06,1.942868964393527e-06,2.1887715195698933e-06,-0.00018488409098744887,2.9689434526635226e-08,3.706054634460547e-06,2.2405812443597906e-07,-2.2063951031395768e-05,3
-5.189992127443425e-06,-2.852890777458506e-06,5.4178330795206985e-06,3.563667372654899e-06,7.475397819178756e-07,4.407273458175698e-07,-1.1165423638490814e-06,-8.986004622695069e-05,4.1644398993674523e-07,2.0526946335164446e-06,2.728593355809394e-07,-2.202605365568644e-05,3
-8.499981208833908e-06,-5.440337888440695e-06,-1.7706032847130848e-05,2.236799045637359e-06,-1.3133566609592658e-06,-9.813562950253528e-07,-5.650448333997913e-06,1.4113639417562506e-05,-1.1288727614913663e-07,5.099445544626422e-07,-4.5838530904215884e-07,-1.649700035796849e-05,3
-8.048106322586174e-06,-5.082915498806496e-06,-1.946604489576253e-05,2.2967640841813683e-06,-1.3130547154925187e-06,-5.913867491274709e-07,-4.474417410216718e-06,5.45191706555546e-05,-5.845564136811801e-07,1.0626683395305336e-06,-9.043288221729708e-07,-4.1896126108119085e-06,3
-5.49437405523148e-06,-3.3096638226800862e-06,-9.677347329292425e-06,3.4437385226934713e-06,1.310373715229784e-06,1.1560687492816517e-06,-8.73609987666142e-07,5.003524110732124e-05,1.3773903597127342e-06,2.3121580354268288e-06,-1.94349305819053e-06,1.1435521679505297e-05,3
-2.7565280395246674e-06,-1.2682678893661718e-06,-4.7841888212961615e-06,3.5896281293929163e-06,3.301245263064507e-06,2.505346041073289e-06,-8.635517595173799e-07,4.4035198288013987e-05,3.2183776390976475e-06,2.3798945396939195e-06,-1.5759228346455063e-06,2.0281298915450258e-05,3
-1.0682830880681049e-07,3.880201964036851e-07,-5.380353202391437e-06,2.0038117119081904e-06,3.1021391541005147e-06,2.4322932701115347e-06,-1.6490505741019028e-06,4.601212920408807e-05,2.5329845396530248e-06,1.927196611898282e-06,6.04329700892456e-07,1.8379836431529566e-05,3
2.6879868670313197e-06,8.740164747849561e-07,-5.670649347986738e-06,-9.845622963976505e-07,1.735359807762195e-06,1.0744630161930517e-06,-2.1745685229773066e-07,4.987562753906736e-05,5.17069842685266e-07,1.7340429776712158e-06,1.6593012209752779e-06,1.1987675550508881e-05,3
5.331262452323639e-06,1.53568501351595e-06,-3.796801115079673e-06,-3.146679776196519e-06,-2.887846349675098e-07,5.009115030413783e-07,3.1948576290782486e-07,4.9971990043911084e-05,-1.0395897292344391e-06,8.138458954852589e-07,1.8865156448310988e-06,8.875034343016338e-06,3
7.0415218661212966e-06,3.442673225140846e-06,3.845901592960972e-07,-3.196346258139849e-06,-1.0790176812794887e-06,2.217819767476482e-06,-1.923494961937172e-06,4.594550193471614e-05,-1.1706288849798026e-06,-3.5993778886846284e-06,2.47130420770388e-06,1.5068467574567554e-05,3
5.94108710735677e-06,3.94575413691693e-06,3.3719149722789796e-06,-2.334347974274337e-06,-4.93590221457919e-07,2.6753679848768546e-06,-4.536646431361353e-06,3.973534249859262e-05,-1.3814927976713865e-06,-1.0139249393830029e-05,1.8091796044947844e-06,2.6249599774185953e-05,3
3.1573034915700103e-06,2.02146606648493e-06,2.861650413393437e-06,-1.6362798539169381e-06,-4.131926735393596e-07,9.320172311061102e-07,-5.4105653890560465e-06,3.349446125831809e-05,-1.6751555485253474e-06,-1.2223220645341878e-05,4.325552515462506e-07,2.956588534933452e-05,3
1.3380507857455216e-06,1.0574212096496836e-06,6.639616649018743e-07,-1.2890200500519769e-06,-1.8787777379208518e-06,2.827638697338547e-07,-4.215117846106925e-06,3.1512378088485385e-05,-3.913044255041097e-07,-1.0116402527412468e-05,3.442424234076432e-07,1.9798537637875405e-05,3
-4.512083228408059e-07,1.751603703669824e-06,-1.4638108051369125e-06,-8.439476172902531e-07,-3.394039694997624e-06,-6.389383932967328e-07,-2.532304518246416e-06,2.988139931885336e-05,4.0747835360896476e-07,-9.438019302861039e-06,-1.6895360397660186e-07,1.4354017907310815e-06,3
-2.205761148949977e-06,1.1638115963056236e-06,-1.251384705634858e-06,-6.304700424164773e-07,-1.889652975716387e-06,-2.8380933378868175e-06,-2.9639623760172746e-06,2.1329001834001943e-05,-6.184805054707488e-07,-9.107215891940944e-06,-1.210568313114988e-06,-1.7151350339761462e-05,3
-3.5672715681523773e-06,-1.1193524627090443e-06,6.167118515746526e-07,-6.200522344658481e-07,5.004615935843362e-07,-2.610549380955506e-06,-4.06608524458168e-06,1.7358704998799e-06,-1.68135841040166e-06,-6.262777587521867e-06,-7.457879655669951e-07,-2.69886059358615e-05,3
-4.041207406466238e-06,-3.849333374297887e-06,1.5766069796994738e-06,-5.517265878445625e-07,4.5093248558684353e-07,5.17384615921529e-07,-2.5542889684367396e-06,-3.08187714488212e-05,-1.520541076746124e-06,-2.3822622277177507e-06,-1.3372651320281465e-06,-2.5718786625112677e-05,3
-8.571847829246689e-07,-5.2222851234521465e-06,2.3460184328171446e-06,-1.898826723105205e-07,3.397378289461927e-07,2.0743669615520883e-06,7.502989920607059e-07,-6.10689740082111e-05,-1.7716513976168637e-06,1.0764601670570797e-06,-3.075555994581349e-06,-2.0039586913867434e-05,3
2.3608804854239967e-06,-3.437837539918022e-06,3.232631656049846e-06,2.328693116099394e-06,2.3056882942667615e-06,-2.7471703049918006e-07,4.080065024488991e-06,-6.908506499559152e-05,-3.6818914412938264e-06,3.818812697826907e-06,-1.8362992008959389e-06,-1.5064084370999106e-05,3
1.0116578939546735e-06,-6.73560183629838e-07,3.508578464530819e-06,4.719109871414668e-06,4.403165921755974e-06,-2.952469394743779e-06,7.937753664419478e-06,-5.256622938707832e-05,-3.5165450960276745e-06,5.9510510523420475e-06,8.816242857241456e-07,-9.602611574326697e-06,3
-3.8404383926473183e-07,9.223241228339589e-07,3.108619716517375e-06,3.806583381847699e-06,3.979642960304286e-06,-2.2066883543350747e-06,1.2984200258510793e-05,-2.4013131042990365e-05,-9.52375726685242e-07,7.304967490174759e-06,1.6259485932203088e-06,-4.439201292245709e-06,3
6.387560648958572e-07,1.9101345584809097e-06,1.3843356619592588e-06,1.7819465162691259e-06,1.5566725880824107e-06,-6.753508267006614e-07,1.739935134081117e-05,-6.444188350529612e-06,1.159387406224839e-06,7.605677258910287e-06,8.827666481817547e-07,-1.8219861611708586e-06,3
4.5301990364506094e-07,9.381702684943266e-07,-1.2562010435157825e-06,-2.9686796390146054e-07,-2.295660626010629e-07,-1.4920004626686758e-06,1.8945144373593358e-05,-9.348697520095876e-06,4.5261019736115875e-06,8.158397691565403e-06,3.0366611607459116e-08,5.231631869626597e-07,3
-1.23463051474286e-06,-1.3939164207102468e-06,-2.8998368200085338e-06,-1.2879593904875795e-06,-9.80582081232528e-07,-1.9946650941197276e-06,1.781796926175648e-05,-1.5526792997659315e-05,7.14881610091977e-06,9.063420729722662e-06,-1.3355165418277471e-08,4.113012119982794e-06,3
-2.310852098960654e-06,-1.3803122017559412e-06,-2.696621847656841e-06,-1.548306963120356e-07,-1.7242923108982693e-06,-5.618083761741619e-07,1.296309702980471e-05,-1.0348998295181583e-05,5.400538476787176e-06,9.070161893398306e-06,8.883243321675977e-07,5.776046021170585e-06,3
-3.609635294165369e-06,3.3689301833850505e-07,-1.911587294381206e-06,6.741280794624631e-07,-3.025370914964254e-06,1.728351652064817e-07,3.5675549622838342e-06,2.5548452988766235e-06,2.6264207959522583e-06,8.319078379175003e-06,1.6362221124057363e-06,3.7773394040576453e-06,3
-4.446866226770145e-06,2.3036999928464972e-06,-1.3496045209654956e-06,3.93372554465505e-07,-5.713653264425301e-06,-1.6992218164110314e-07,-7.357637622125388e-06,1.6855974175520075e-05,1.339225430318297e-06,6.730497596356742e-06,1.2293820067363319e-06,8.042859334353131e-07,3
-2.492334469599166e-06,4.545036861588104e-06,-4.1360814727285023e-07,-9.401684413388353e-07,-7.614644498060088e-06,3.4148242013540754e-07,-1.8291164643693896e-05,3.334450446909196e-05,9.819777911098118e-08,4.932713594396163e-06,5.978220730111241e-08,-2.2062588934655956e-08,3
2.7411444166865016e-08,4.1179290753366944e-06,1.6893270697562275e-07,-2.7422548036090997e-06,-4.876244145181051e-06,-1.1110119507862682e-07,-2.8954779891288652e-05,4.8200078644962456e-05,-1.1169813477988188e-06,3.990847366314146e-06,-6.27002846150264e-07,1.464113898499671e-06,3
2.2953384749282904e-06,1.6058056514362523e-06,1.0170120979694643e-06,-3.4897796114384144e-06,-3.686862561552727e-07,-2.5162950244163164e-06,-3.392286818652229e-05,5.125828586703487e-05,-1.62394017345941e-06,2.082565256898599e-06,-5.816302175614955e-07,4.218900176367524e-06,3
5.650011373332297e-06,5.472193271146564e-07,3.353101673315596e-06,-3.3623109749483866e-06,2.052789168533571e-06,-2.0956648347782016e-06,-2.6068717428056614e-05,4.103513894560889e-05,-2.28249439214921e-06,-2.596957918800172e-06,-8.029379168676864e-07,7.030834734632248e-06,3
6.597148471686166e-06,-2.796377206988647e-07,3.301574327077064e-06,-2.268220854407124e-06,3.95323896314372e-06,1.6986903390803853e-06,-8.156875984974487e-06,2.30792781074381e-05,-2.4419312241061333e-06,-8.316850844136577e-06,-1.5743520307867072e-06,7.093199356308716e-06,3
2.9508766150050966e-06,-2.74944732128674e-06,-9.063662511973292e-07,-1.0611263272670157e-06,4.618641074962514e-06,4.8402624590464525e-06,6.7439387946997795e-06,1.1827536057705561e-06,-3.833182422461605e-07,-1.1131670980990156e-05,-1.5144261122047883e-06,4.304903713757776e-06,3
-2.683041664944831e-06,-6.2760053481102245e-06,-5.062174190004673e-06,-3.691100273168668e-07,2.999932894193238e-06,5.92231266974983e-06,1.0615866795360339e-05,-2.2122924065277296e-05,1.3432551325200323e-06,-9.655124889413623e-06,7.815018080426064e-08,1.583101319156798e-06,3
-5.2520592333422995e-06,-7.130459902186053e-06,-6.035814550749991e-06,1.4159305942700782e-06,1.4493479069764185e-06,4.2027944497116825e-06,8.290600883197702e-06,-4.2158976925721165e-05,-3.9562850607654693e-08,-7.741827622688771e-06,1.5786414966683185e-06,5.75979557226725e-07,3
-1.0320847680566746e-06,-2.985155373759752e-06,-3.236409093813885e-06,3.274632340803975e-06,9.37993564753312e-07,2.1914757831987648e-06,6.988440233776729e-06,-5.1424343240239326e-05,-2.521363615247209e-06,-8.72738106834024e-06,9.696387543872996e-07,2.706289885630774e-06,3
4.593636958359874e-06,2.0437273968467334e-06,9.237298527139167e-07,3.932297392796681e-06,9.985422934270923e-07,2.209720842278159e-06,6.839567956373719e-06,-4.837162121416704e-05,-3.6642459967799564e-06,-1.0987960227409952e-05,-9.777040281799576e-07,6.570716695397181e-06,3
5.196683266269589e-06,5.7943370104304045e-06,3.561879333728881e-06,3.7932894905680702e-06,1.2043831202425092e-06,1.7022384694608777e-06,6.273648421151527e-06,-3.9432154196540185e-05,-2.3105181731969973e-06,-9.902695451579423e-06,-9.683974699083513e-07,8.088066863886e-06,3
3.309301185178118e-06,7.752217540688045e-06,4.903884223330166e-06,2.3873525862923678e-06,2.541749289534581e-06,4.871770054810881e-07,6.039256946439717e-06,-2.7608834983855174e-05,5.439646654657695e-07,-4.04663250713924e-06,9.084355642811156e-07,5.548176664750338e-06,3
1.4861848468969456e-06,6.03353009496031e-06,5.653885292596335e-06,1.0470039787056152e-06,4.342681722340695e-06,1.1827378659638593e-09,5.6261133607853965e-06,-1.4871945612727744e-05,8.759547112792587e-07,6.327678664065397e-07,1.566064167576226e-06,4.464417031839287e-07,3
-1.7681414295029676e-06,2.8239327230693538e-06,5.2505707182122775e-06,-1.0283712985481178e-07,2.572809044955239e-06,-3.8224719166566165e-07,4.0096390527646636e-06,-7.740568303235556e-06,-7.649118895223039e-07,9.748629977433816e-07,8.346048407501114e-07,-3.2939131062970585e-06,3
-6.026161152742316e-06,-9.773669982059881e-09,2.203030453988379e-06,-2.7329591487553797e-06,-1.471737619369741e-06,-2.315945184089953e-06,1.1358344438772222e-06,5.792673293041442e-07,-9.458747148363423e-08,1.3820697485647628e-06,-7.965267260847982e-07,-4.839725507712828e-06,3
-8.313586026782599e-06,-2.182112529686765e-06,-1.7855443875686203e-06,-4.318308706179564e-06,-2.953108576515077e-06,-5.270645262911625e-06,-2.9566127910811573e-07,2.7052603975483763e-05,1.298417167530373e-06,3.3221672558996007e-06,-2.6427898452747972e-06,-5.845841018634672e-06,3
-5.975618966184462e-06,-2.9652471339346587e-06,-3.2173680830387736e-06,-3.0042708634555395e-06,-2.6925717210960206e-06,-5.684705589851335e-06,1.0752465007156808e-06,6.37698472349568e-05,9.701728158435713e-07,4.232282538906474e-06,-2.1839369566008557e-06,-5.8195800736349894e-06,3
8.617542685851368e-07,-3.796068161194557e-06,-3.433137713962955e-06,-1.3038346979279133e-06,-2.8918953938799193e-06,-4.755911547325433e-06,1.2358987227106159e-06,8.592348737917528e-05,5.132561485331244e-07,3.5289344193671636e-06,3.6127045074332646e-07,-7.3806694435840535e-06,3
7.983087844409208e-06,-5.115410024561827e-06,-3.535895744505069e-06,-3.5646571671221255e-07,-2.2005403860408783e-06,-4.420670294314755e-06,9.902423358664057e-07,8.806885722257093e-05,1.0150429089127058e-06,4.2439624428226175e-06,2.259664183168152e-06,-1.4516481236351896e-05,3
1.0307316443203324e-05,-5.8009040689693595e-06,-2.653510358366661e-06,6.220063910638642e-07,-5.596644857232867e-07,-2.65791355392235e-06,2.0305279043029615e-06,7.367539915567877e-05,2.146093398742604e-06,9.032641601048102e-06,2.3194266351344118e-06,-2.6327237130692446e-05,3
5.507753107105202e-06,-5.161510276254474e-06,-2.159759128939204e-06,1.0734701021412408e-06,-1.1766779043447184e-07,-1.1693679560270695e-06,-7.66157329003587e-07,3.063468225444515e-05,1.5618702302214028e-06,1.4212626432776092e-05,1.757913580149235e-06,-3.4136358650298384e-05,3
-3.84676462727099e-06,-2.6657350193712302e-06,-1.7616896621334411e-06,9.356568665788814e-07,-1.1573635981396489e-06,-4.303839370069676e-07,-5.4707882443922986e-06,-3.614639934403483e-05,-4.95621659016192e-07,1.4351189871655693e-05,1.5934244727058922e-06,-2.324063618663629e-05,3
-9.625509157801143e-06,6.570618216100978e-07,-4.302324999887644e-07,1.355586953247069e-06,-2.854194041545879e-06,2.2272220833507832e-06,-5.193639677324679e-06,-7.715704422663821e-05,-9.56107659000872e-07,9.292252745485102e-06,5.631053948594857e-07,6.941631112303281e-06,3
-8.603158888516836e-06,2.9433464596663014e-06,-7.949925755591238e-08,1.5057374447586738e-06,-3.498178079037169e-06,4.474812153854434e-06,-2.340483647355059e-06,-6.647544660877442e-05,-1.7678273690958821e-06,1.8597499593339146e-06,-9.135394727618109e-07,3.6352003588058575e-05,3
-5.8750956625806915e-06,3.7568383338213147e-06,-2.0250130638999456e-06,9.635670792508777e-07,-1.791040396814592e-06,3.4045305940121032e-06,-1.7232880595929685e-06,-4.2901870017343665e-05,-2.7104478376655978e-06,-4.876303470538398e-06,-6.632826404926357e-07,4.7523779445375294e-05,3
-3.1805910865315125e-06,3.4516927278378544e-06,-4.064493445458635e-06,5.15243535432249e-07,5.440100513762844e-07,1.9732808324431653e-06,-1.1060314867275858e-06,-3.66034194349998e-05,-2.2103666883753846e-07,-8.094107461416489e-06,2.1643193839259768e-07,3.798040622366818e-05,3
-3.0991208297695995e-07,2.521023872584771e-06,-2.4531935497290475e-06,-7.033726473112521e-07,2.4556169297650314e-06,3.810115949208894e-06,3.0765483986518907e-06,-3.461651851392744e-05,2.9474615282358927e-06,-7.632322832201768e-06,-8.56295390804473e-07,1.7556755905361572e-05,3
1.3230116177419487e-06,2.829634637227441e-06,2.1203816686178504e-06,-1.7256293649620937e-06,3.5324671787088444e-06,5.558224393530191e-06,7.338049248238966e-06,-2.587875246126097e-05,4.151169774276304e-06,-5.627000749106278e-06,-2.9857537869093167e-06,6.138001586166634e-07,3
1.7983239746918156e-06,3.607755502125277e-06,5.752813048711263e-06,-7.317799043868297e-07,2.7361086666104726e-06,3.181810644607584e-06,5.4012648130989246e-06,-1.577061570131981e-05,3.4904766101106347e-06,-3.365931148067634e-06,-3.228773831039986e-06,-6.485992019600497e-06,3
1.6108097269705577e-06,1.9654308648265043e-06,7.989240580578812e-06,1.0404588474896201e-06,1.3701743998066958e-06,-5.588538845879258e-07,-7.576387483186079e-07,-6.134169547594505e-06,7.235204428497765e-07,-1.586878329123086e-06,-1.4727301297491998e-06,-7.303460344001144e-06,3
3.164208008532073e-06,-6.435257454332663e-08,8.767666349402796e-06,2.073813652509903e-06,9.3003873203665e-07,-2.7339824382242067e-06,-4.156055025754956e-06,6.605728740018906e-06,-1.4595201127747182e-06,-1.1159893712610323e-06,3.900403994398203e-08,-8.058842427481572e-06,3
7.080264065309668e-06,-1.0605359790285647e-06,6.674241312706597e-06,1.5671191778296275e-06,7.187533550064534e-07,-2.5963594437614455e-06,-4.593357214534299e-06,2.074430962009126e-05,-1.6045335858690725e-06,-1.4525194776622695e-06,2.2141897192574315e-07,-1.035883702796784e-05,3
1.0515335206803599e-05,-1.6582763855775586e-06,2.041429354328713e-06,-3.7120952010196165e-07,-2.2815703741040935e-07,-1.297236336452774e-06,-6.063521976937218e-06,2.9636594179416422e-05,-1.2167563128040819e-06,-1.7539464123466962e-06,1.1578822726099688e-09,-1.1544754100753486e-05,3
1.2427466525953172e-05,-2.690330660116961e-07,-2.8824292746154887e-06,-2.0473128857953096e-06,-1.1477761376636207e-06,-1.7456804933671815e-06,-7.428881444669433e-06,2.889855738210059e-05,-1.3290832488784442e-06,-2.3519193210983164e-06,-4.9974841670383275e-08,-1.1605527606730256e-05,3
1.133748373527069e-05,1.1079348191940555e-06,-5.025288721501249e-06,-1.9878677051711516e-06,-7.08724743324472e-07,-2.4865331240003533e-06,-5.389069304539759e-06,2.1761080355645705e-05,-2.434416323310449e-06,-2.687365538873794e-06,-4.6196468203378516e-07,-1.0031075995428964e-05,3
6.84964344731614e-06,5.804673681222607e-07,-4.5885657984864555e-06,-1.973802600744232e-07,2.7045866091907756e-07,-1.6696616651139162e-06,-1.5502420148904173e-06,1.1419340479534834e-05,-3.2140219885792335e-06,-1.3553567500803584e-06,2.3373859702289225e-07,-4.606704146502851e-06,3
2.410044378324862e-07,8.020147622184291e-07,-4.086839922921917e-06,9.645583475618008e-07,-2.4749841972750193e-07,-1.119964798852137e-06,1.516898184499353e-06,-1.6046208153426164e-06,-2.5526471896555822e-06,4.555016718871153e-09,2.1484108740789523e-06,1.2912173441202995e-06,3
-8.173706423180443e-06,1.1965670870591702e-06,-4.223037554520263e-06,1.3859904230466815e-07,-1.1489132605477025e-06,-8.11071259623835e-07,3.909051159635571e-06,-6.989975501357624e-06,-8.177073458012276e-07,-5.543274307104364e-07,2.4132010901075435e-06,3.120846555653094e-06,3
-1.3298243775749982e-05,-9.932606222125479e-07,-3.544284777199899e-06,-1.0654818478320906e-07,9.78421441032957e-07,3.0860279672718867e-08,4.75501029541057e-06,1.2462745069816924e-06,1.2797848200519562e-06,-4.257602316159153e-07,2.1811997833211307e-06,2.008453441869479e-06,3
-1.3066992301535256e-05,-3.4542841141420477e-06,-9.064131831524047e-07,6.595367776190763e-07,3.0142855507302783e-06,8.016973389860209e-07,4.5847467002167e-06,1.2243722072939631e-05,2.6123583373690355e-06,1.3965065470951098e-06,2.7429324448652166e-06,5.216786578080578e-07,3
-1.5000523150393294e-05,-4.3530038668455014e-06,6.064801756186398e-07,-1.1072138916174458e-07,5.927889764830211e-07,1.0765475083128266e-06,4.069713438182566e-06,1.7239761680541903e-05,2.778161514745102e-06,8.158761402817876e-07,2.0516361056954513e-06,-1.0166708470890017e-06,3
-1.9618354808935237e-05,-6.894793442577109e-06,4.5328214902757294e-07,-1.5219273563524935e-06,-1.4764568348478979e-06,9.34287829657383e-07,4.963532856368145e-07,1.5927649061864332e-05,5.283896118970621e-07,-1.9369547627621825e-06,1.129960948732948e-06,-2.0046467753112954e-06,3
-1.892131713170357e-05,-8.714426547650782e-06,1.92308646520497e-06,-1.3944295756366352e-06,-6.685655825771964e-07,9.245451016350621e-07,-3.719294108811733e-06,1.1050269678271651e-05,-2.6301698832554346e-06,-1.996366328233538e-06,3.3394218752207514e-08,-1.5597696230031365e-06,3
-7.785433580708244e-06,-3.7853747543533202e-06,2.732345787701768e-06,-4.881968355811901e-07,-1.5171182338737956e-07,1.1887994619358749e-06,-2.732078026789808e-06,4.742974608854449e-06,-2.038191462870692e-06,7.350569821542093e-07,-2.0775061589388125e-06,-1.400089484549524e-07,3
1.1047474002682526e-05,4.226090575767682e-06,1.3033931035331665e-06,-5.057186409180141e-07,-1.971777933698434e-07,1.9424386724648702e-06,2.429174489214583e-06,-2.893421582328298e-06,-8.69424038195922e-09,3.533130317875882e-06,-1.9330279040944454e-06,2.033097798958771e-06,3
2.1676054489757396e-05,7.062344378812236e-06,2.8609263364744484e-07,-1.5351345602880788e-06,-8.062067956066307e-07,2.7286414885945927e-06,5.876146465908553e-06,-1.0795466164756427e-05,1.0093482297583102e-06,4.904815295665183e-06,-6.82186194368654e-07,4.410953367247232e-06,3
1.452867130699278e-05,4.331743876663521e-06,-5.772434239445559e-07,-1.408610390921232e-06,-9.368848050094196e-07,1.8855520470641615e-06,4.671490285160337e-06,-1.864516713543597e-05,3.763112083316293e-06,3.9770804429075674e-06,-1.3210846473090303e-06,6.8183593950998855e-06,3
4.907741464565246e-06,2.41144271444034e-06,-1.8542951460767515e-06,5.42577727522317e-07,-1.7949126564224421e-07,-5.6244533963402e-07,2.928370053394695e-06,-2.399371880875888e-05,5.018652173328557e-06,1.4217823405942957e-06,-1.4182485369890426e-06,8.542716039460069e-06,3
6.0368404838574345e-06,3.955310987849389e-06,-2.30346750763268e-06,1.0335454991374446e-06,-1.1839176658338176e-06,-3.1432426343782304e-06,2.8251753076503167e-06,-2.1428730413103023e-05,2.370592153208539e-06,-1.8560365906184089e-06,-9.381133955678785e-07,6.292203432361802e-06,3
1.0671045160213905e-05,5.721209936750515e-06,-1.2541698608124928e-06,-4.1249871522522274e-07,-2.429767656764271e-06,-4.329125350561984e-06,1.2600386198000326e-06,-1.1804132822259861e-05,-8.725629789706814e-07,-3.4642928466517966e-06,-1.3836442082444908e-06,1.3967592173976105e-06,3
1.0017570001270304e-05,4.4323386062607595e-06,1.1009335730945378e-06,1.1683073644312295e-07,-1.6854964133943229e-06,-2.7903434401838547e-06,3.2640135250182254e-07,-1.2719224143265433e-06,-3.5190433658995847e-06,-4.703022443377714e-07,-1.5805330950251713e-06,-1.0239299296488337e-06,3
5.941619119734853e-06,8.91410060628535e-07,3.156516215568722e-06,3.036283464007138e-06,1.6552937880970118e-07,5.540258399937863e-07,1.120450585441438e-06,7.493498223415818e-06,-3.536839485084506e-06,3.3276260758008264e-06,-1.403069273586176e-06,-3.065982834081862e-07,3
3.3402831580476593e-06,-1.4273884927607667e-06,3.982433504653953e-06,5.113757590892387e-06,2.7549772244593484e-06,2.46986009925176e-06,-3.883725940423405e-07,1.3056832468329257e-05,-1.953842490137431e-06,2.870665119337593e-06,-9.147344087460776e-07,1.7413681507424835e-06,3
1.0429574568262563e-06,-3.1031202863119107e-06,4.21211468778193e-06,3.990038436696609e-06,3.5554689107146724e-06,1.1464228822527211e-06,-3.4984080906037144e-06,1.0405717769356073e-05,-1.4352134108874176e-06,8.781684977841171e-07,-4.229727466133634e-09,1.6353035448850598e-06,3
-3.6239966099703735e-06,-4.5081274647509605e-06,2.5996128921901185e-06,7.077544659053572e-07,1.1544436814454704e-06,-1.5575243169774894e-06,-5.807744452739111e-06,-1.1489257919848081e-06,1.3069827571252005e-06,6.314196831939928e-07,7.944122344432885e-07,-3.6128463814581296e-06,3
-8.652715483558936e-06,-2.6714300739519105e-06,-1.0045827717258515e-06,-6.662542341324949e-07,-7.754044600146356e-07,-2.6774548813364156e-06,-6.0999282945323706e-06,-1.39510146201953e-05,4.532443957792101e-06,1.5833684052026255e-06,1.6925192315816546e-06,-9.372817109726238e-06,3
-1.2470755472747746e-05,-8.624135393885777e-09,-3.3136027492843397e-06,-1.4076558337206184e-07,-3.82514756833026e-07,-8.056225864263831e-07,-4.822964801994038e-06,-1.861433333668712e-05,3.3425847447905106e-06,3.91779863462158e-06,2.3681411681055726e-06,-9.468578373304526e-06,3
-1.2965999439454313e-05,5.824199998690403e-07,-3.6615773467497826e-06,-7.469174801766994e-07,6.075273215208776e-07,2.274413806612475e-06,-5.272795145736556e-06,-1.1181128587826073e-05,1.0895415486662404e-07,5.905085502150068e-06,2.043426394884167e-06,-5.795476572414983e-06,3
-8.094621385023711e-06,5.081000485454215e-07,-3.1586790970302537e-06,-2.0409649839212535e-06,9.798643904954227e-07,2.863966997625774e-06,-6.458998822426545e-06,5.117519322551412e-07,-1.504201944028366e-06,4.029213638801641e-06,1.3192404282052595e-06,-2.4694726926124627e-06,3
-2.2627597224662687e-06,-3.3114847759215804e-08,-1.9219342133507293e-06,-3.046383886547005e-06,2.610802697631168e-07,7.315445759126697e-07,-6.488716086661409e-06,6.815130373571368e-06,-2.0894873800951832e-06,-4.910252182281065e-07,4.4222366698531527e-07,1.8151404662387534e-07,3
1.183121103799266e-06,-3.8632212926033883e-07,-8.114622526844717e-07,-2.922477712123213e-06,-1.1118171743164468e-06,-1.9641295225163328e-06,-6.342487663993531e-06,8.175220880767671e-06,-3.552695394225822e-06,-3.8114247733564226e-06,-9.79838606916338e-07,2.1562397075520964e-06,3
2.626432402301694e-06,-5.578436921246725e-07,3.9224016244320155e-08,-9.865909685912335e-07,-1.0173318174767164e-06,-2.5273513882397544e-06,-5.3120615166494075e-06,7.0949605392955755e-06,-3.2123877190355025e-06,-5.1257933040787634e-06,-1.4979007151623193e-06,3.4775319996869614e-06,3
1.74801337672678e-06,-1.3442683886704127e-06,7.596443513224853e-07,8.065240278340957e-07,1.0108541363492764e-06,1.0280160912359516e-06,-3.178682875887235e-06,4.119449525259653e-06,-5.654658593680405e-07,-6.1819679319775185e-06,-6.419168469674481e-07,4.4935495652228175e-06,3
1.203717139551272e-07,-1.102675371728333e-06,1.4205370046819163e-06,1.2390240547582225e-06,1.6331345763861083e-06,3.43883085422795e-06,4.4874637915454776e-07,3.2977454596467576e-08,-3.4051829641418116e-09,-7.324507016351636e-06,-1.5089675720081684e-07,4.538942552325848e-06,3
-1.71738110617195e-06,-2.947902045353575e-07,1.676060321595159e-06,6.916171599189353e-07,-1.1370352744204127e-07,1.15070181954522e-06,5.148870353927026e-06,-4.483198536344936e-06,2.872734877460746e-07,-7.51569226098517e-06,-1.4123808596355744e-07,3.522373176493009e-06,3
-3.4382789715138862e-06,-2.4873583336828655e-07,2.0709038303213733e-07,-5.75530929708787e-07,-1.4144927269181132e-06,8.296336053364755e-08,8.386956068783621e-06,-6.156978404615699e-06,1.1786937453803999e-06,-7.804848278107456e-06,1.1663556223075615e-07,2.222893789514968e-06,3
-2.198667876690188e-06,-1.2828294252833073e-07,-1.7659331839106376e-06,-1.5717876105401579e-06,-2.2016154570522813e-06,1.4010281617492061e-06,9.707696966523332e-06,-2.390787432256105e-06,9.92135133549007e-08,-9.149181063107341e-06,1.0355144081271124e-06,1.4030909870041727e-06,3
1.1342662813596225e-06,-8.232608608468547e-08,-2.357429428927517e-06,-1.3858572046166947e-06,-2.7456295842916074e-06,1.0121226062256768e-06,8.931776680640707e-06,5.149654309256042e-06,5.305585698337633e-07,-9.40506807819955e-06,2.3046676533827014e-06,-3.7038593197377764e-07,3
4.701964131830368e-06,-4.723981417376625e-07,-1.7462178395931782e-06,-3.4188125134587217e-07,-1.4937102454086921e-06,-6.192504537886693e-07,8.251934502631361e-06,1.4485831182483925e-05,2.4159756437422356e-06,-6.172320521951651e-06,2.1659514359947625e-06,-4.545275338000419e-06,3
9.62090807347418e-06,-1.0151587580310081e-06,-1.936139112233761e-07,1.276127863114464e-07,5.157891774599891e-07,-1.2708320612296797e-06,1.1526559814164383e-05,2.488128568907035e-05,2.1043885372013892e-06,-1.0888273518270053e-06,1.5500350526547922e-07,-8.09399521066616e-06,3
1.3111302947142509e-05,-1.5815512439014564e-06,2.2979955167948948e-06,-6.81648195422363e-07,1.5863875529987962e-06,-3.189291442802228e-07,1.6340023241489977e-05,3.6846393039258074e-05,1.1066292812307857e-06,1.907141083710777e-06,-1.990622878885863e-06,-8.748085963249667e-06,3
1.0345233018551908e-05,-3.0249063813239514e-06,4.796130984316692e-06,-9.950211028708474e-07,1.7486747427315023e-06,-1.1567388618861725e-07,1.8887316325978307e-05,4.70851394984785e-05,-7.914552831599262e-07,3.3440217541215547e-06,-2.0525288695415614e-06,-6.817129237961738e-06,3
4.220486489140265e-06,-4.963053026769465e-06,5.005433145948664e-06,4.928650180999287e-07,1.4697310269459727e-06,-1.5317429556401775e-06,1.808783591359165e-05,4.316756342386162e-05,-3.3548981817005394e-06,5.539283876490693e-06,2.9482283098256014e-08,-2.9185593564734125e-06,3
5.938470741091397e-07,-3.310180021089429e-06,3.624363725247463e-06,1.918415357377328e-06,7.237189166363008e-07,-1.6298781105953524e-06,1.242825685475256e-05,2.0180082985949004e-05,-3.0122168711339833e-06,8.204167643061483e-06,9.600581280719373e-07,1.561396660847454e-08,3
-2.790660397099505e-06,1.2597076989447185e-06,3.4744549166729294e-06,1.6038193059039729e-06,-5.238477991767561e-07,-1.3376949324851711e-06,2.811280831526711e-06,-8.47962362102114e-06,-8.438266876515636e-07,1.1947846137456292e-05,-1.3023073329067608e-06,8.025801263967492e-07,3
-8.95387043009644e-06,2.688520864674975e-06,2.118087395767257e-06,8.3596583401749e-07,-8.090623320688346e-07,-1.6593418237764418e-06,-7.724743953338914e-06,-3.0467597187797844e-05,6.181507869046232e-07,1.685733918238726e-05,-3.7234240974133244e-06,1.2465377314447493e-06,3
-1.2144593932373764e-05,1.6002096425881627e-06,-2.9563907018836563e-06,8.891775489926425e-07,7.225249290064136e-08,-3.614194755843949e-07,-1.6832895521723163e-05,-4.530607658235311e-05,1.9692712779849416e-06,2.1350304719797024e-05,-2.86095778833897e-06,2.7439161174599647e-06,3
-8.233240835078318e-06,2.9767993309638934e-06,-7.736965424131814e-06,1.0514301100994296e-06,4.733590270564096e-07,9.925784588067769e-07,-2.0998482874779493e-05,-5.70910766860152e-05,4.109058461132471e-06,2.354089491364338e-05,-2.477711161467163e-07,6.726107637454297e-06,3
-1.4452065059752396e-06,7.880462026878171e-06,-7.904751631673516e-06,1.00992117017571e-06,2.9376885866686894e-07,1.3304404678745047e-06,-1.9344725709473712e-05,-6.555941791238002e-05,6.679513734904701e-06,2.011899190954921e-05,1.103474876669532e-06,1.1522024776811193e-05,3
2.9916516299550104e-06,1.4312696688244085e-05,-3.872011308002682e-06,9.995060459897365e-07,3.6825461050923136e-07,1.8232860479591694e-06,-1.847301028254687e-05,-6.491221052788507e-05,6.892680149514105e-06,1.0121684677265493e-05,1.5559385500715943e-06,1.3523209662842747e-05,3
3.525071076170887e-06,2.0041932020350095e-05,1.0461027638116134e-06,6.054164911384415e-07,9.846612680803332e-07,1.1071889720179255e-06,-2.3628695713651834e-05,-5.6070746794255e-05,2.953284817710965e-06,-1.86754155527479e-06,2.3597144291607344e-06,1.4307826865849696e-05,3
1.8817213749743487e-06,2.335319780253306e-05,3.899993823194806e-06,1.5044895596802874e-09,9.1989175112476e-07,-1.3739428638962565e-07,-3.0509650696460752e-05,-4.139908017827242e-05,-1.5418577144704291e-06,-1.0550059351039575e-05,2.215478857330066e-06,1.5684605842777527e-05,3
-8.755722999419033e-07,1.8883282471178638e-05,3.3838982355073113e-06,-8.24404097074302e-07,-2.0491856884656814e-07,-4.1415198239546574e-07,-3.352715613479059e-05,-1.1024460463120204e-05,-2.7993464005279016e-06,-1.5155306762839177e-05,6.077406457577384e-07,1.2063078033639811e-05,3
-5.126895122887236e-06,-2.7097931320250086e-07,-2.7794290788744343e-07,-1.7597219888658375e-06,-9.380788422729499e-07,-1.5610638833977499e-06,-3.2512974840225094e-05,3.490046039125315e-05,-2.702529693988962e-06,-1.710613455950648e-05,-2.91009020602724e-07,1.167497550270021e-06,3
-9.856734324370964e-06,-2.828800896624873e-05,-3.99653843668389e-06,-1.3550657029126302e-06,-2.003015730172639e-06,-2.9715326295716307e-06,-2.67345619108886e-05,6.837180135535234e-05,-4.5101557373574575e-06,-1.7689448419803977e-05,6.24973510010183e-07,-8.548736925034914e-06,3
-1.2503931624149245e-05,-4.5895914982782215e-05,-4.316223178415326e-06,-7.778488589935953e-07,-3.1076782665606173e-06,-2.6510572124422432e-06,-1.3808574896612836e-05,6.434785428842537e-05,-7.3056854545870186e-06,-1.851263175462285e-05,1.6956763353161594e-06,-1.1424391489618993e-05,3
-9.427570646079363e-06,-4.273202993804643e-05,-2.8283143595712413e-06,-1.3839992547954254e-06,-2.1165165438016086e-06,-1.6209978493823358e-06,4.221175661232446e-06,3.259784867388856e-05,-7.221034899978153e-06,-1.8638495479411755e-05,1.823856382337363e-07,-1.0154456379609573e-05,3
-7.734684772843792e-07,-2.6938932072394844e-05,-1.705013304609703e-06,-5.321982454858526e-07,1.8778490534949877e-07,-2.3021617117411465e-07,2.2840514244220704e-05,5.785371402423266e-06,-3.0152442870059226e-06,-1.6541461413012497e-05,-2.3590421233664313e-06,-8.549687359653932e-06,3
7.99219014803524e-06,-9.679719615333861e-06,-5.644728330295334e-07,9.202677603731291e-07,2.0546959108748548e-06,1.6342915524711255e-06,3.992318391071161e-05,5.865536091200253e-06,9.811891465360226e-07,-1.3051155257308748e-05,-2.149417716093877e-06,-8.760915310949173e-06,3
1.285123976667083e-05,1.8188539157934906e-06,-5.227297786118897e-07,3.2196809686881905e-07,2.532341160218454e-06,3.7217464756837818e-06,5.435835218022755e-05,2.4117757527117857e-05,1.3811333940361878e-06,-9.130432572676617e-06,-5.647999031906413e-07,-1.0774567963952986e-05,3
1.4666037977670376e-05,7.267589978749436e-06,2.292919562215506e-06,1.0703464219896071e-07,2.0496813073023536e-06,5.2477263357903445e-06,6.515136114029443e-05,3.241579434725717e-05,-1.8832112288678786e-07,-5.820026950455232e-06,-2.9665012470641883e-07,-1.3039131399407693e-05,3
1.5825889980107777e-05,1.4715434210896284e-05,1.1916091714107235e-05,5.831497024968739e-07,1.4693729123246847e-06,3.7872699505314198e-06,7.07988387023588e-05,1.6952053919158936e-05,-1.4366963045109397e-06,-2.2286203094365875e-06,-1.831318699241221e-06,-1.4269279719596332e-05,3
1.4383938558325122e-05,2.3481770719661266e-05,1.720587335840588e-05,3.217548199953865e-07,2.433746594949417e-07,1.28507035593653e-06,6.840271639830612e-05,-4.937512125263238e-06,-2.507703263546551e-06,2.9121258948057026e-06,-2.3827514101292166e-06,-1.4287804807177518e-05,3
8.765422022872047e-06,2.7232451441734844e-05,8.77584471274028e-06,1.151290188048793e-06,-1.209243503715979e-06,7.217074868162958e-07,5.472936247459376e-05,-7.333041010147068e-06,-5.267047527399434e-06,5.800132659277446e-06,7.117830107878314e-07,-1.4142371141751774e-05,3
3.0491836132966785e-06,2.6949708932896734e-05,-3.4530118562606037e-06,1.9675851193849624e-06,-1.5929439545520415e-06,3.3986488291780096e-07,2.6463380670736995e-05,1.0986312781444216e-05,-5.572267025745941e-06,5.264929394391586e-06,3.146090434159538e-06,-1.7339783279632792e-05,3
-1.8517956339829164e-06,1.9802145413934574e-05,-8.872900018573448e-06,3.4815822943520447e-07,-7.481931401618879e-08,-1.2732792375417786e-07,-1.3687318501005846e-05,3.0941215723741293e-05,1.7113255774871824e-06,6.929227911530323e-06,2.6034571530917998e-06,-2.0816302280460284e-05,3
-8.982059446853222e-06,3.855093457293106e-06,-9.167588135341022e-06,-1.2007627253962314e-06,2.134463671904667e-06,-6.912328580052345e-07,-5.363241833248735e-05,4.00906565804261e-05,8.641521674837318e-06,1.2851590911931197e-05,1.5517424388153026e-06,-1.192347595841567e-05,3
-1.627036077453812e-05,-1.0942754602941478e-05,-7.568522147016543e-06,-7.726782109801109e-07,1.9264460865999937e-06,-1.7362504862825672e-06,-8.153129550679306e-05,3.905238870767358e-05,9.048280056965617e-06,2.0423968519357993e-05,8.213430808907628e-07,9.078672683835516e-06,3
-1.74430306058533e-05,-1.4974565087037199e-05,-5.39320289849855e-06,-1.129332155793811e-06,-5.644832125274435e-07,-2.6263281871651295e-06,-9.150258695233044e-05,3.449708483349166e-05,8.194215435503211e-06,2.6803735858256094e-05,1.8152117853498033e-06,3.3978312192051276e-05,3
-1.3131410790811535e-05,-7.79894604054173e-06,-4.932738655059742e-06,-3.4688630443714626e-06,-3.3234224148611018e-06,-4.270687031645922e-06,-8.105835990131457e-05,2.1333318277769307e-05,8.22345465701658e-06,2.7633502079219743e-05,2.039685810388084e-06,5.824245962490308e-05,3
-1.0285220808596646e-05,3.964780425879467e-06,-4.3730828211149245e-06,-4.489473335155009e-06,-4.855522211116747e-06,-3.8045491746885815e-06,-4.9915791526592736e-05,-1.4320869758014305e-05,7.235705550849362e-06,2.0244282515202413e-05,-1.2239106690019517e-06,6.418329976190306e-05,3
-4.991428963271205e-06,1.1206047748549297e-05,-2.558607754995191e-07,-1.192805605469548e-06,-2.2644063549977386e-06,1.024571363293097e-06,-7.790838533256145e-06,-6.94525188475135e-05,4.466746743312559e-06,8.726685087395075e-06,-2.900500258995179e-06,4.219633853434959e-05,3
7.914079943870541e-06,7.755250599146627e-06,4.103805501947769e-06,4.119085819577297e-06,3.7016620621039994e-06,5.297131938381843e-06,2.2243066393044417e-05,-0.00013931049301724998,2.270815330601295e-06,-1.403370841782704e-06,-1.7797881455569491e-06,1.0570587953069068e-05,3
1.67730643404048e-05,-3.7810977846206334e-06,4.726957794464234e-06,5.40759091251021e-06,6.4508991412317835e-06,5.233286996348062e-06,2.656987373848266e-05,-0.00020019478922149773,1.9789390406023852e-06,-1.030348996818892e-05,-2.235423530734715e-06,-1.086823102800374e-05,3
1.57934624702695e-05,-1.1624356594969811e-05,5.202609155258643e-06,1.8167558492519755e-06,1.7931648850809438e-06,1.3367774137349472e-06,1.606402056706811e-05,-0.00017571690012905682,-7.666094225146539e-07,-1.7014205580625104e-05,-3.362401348315033e-06,-1.841190402613886e-05,3
1.368462198004234e-05,-8.24053462992951e-06,8.1244052434156e-06,-1.3615066298286267e-06,-4.945972270864168e-06,-3.2326205768444947e-06,7.029576397621263e-06,-4.819221242271992e-05,-6.2778902340644495e-06,-1.6789599089442075e-05,-2.322438398334249e-06,-2.1569989084247576e-05,3
1.3248267399861947e-05,-1.8723271500920643e-06,9.075459738268985e-06,-7.295471612235846e-07,-4.345338502535085e-06,-5.693943444891843e-06,5.347584160512727e-06,7.204228232898316e-05,-1.1481670504642965e-05,-1.080195128067817e-05,9.465644843942961e-08,-2.4229511844889882e-05,3
1.1907106733969537e-05,-4.78788464242957e-06,4.644717180282831e-06,2.2559557486913687e-06,1.280501793443504e-06,-6.096327134835695e-06,8.61987493540201e-06,0.00010017650482195423,-1.6131115737894703e-05,-5.392792014879751e-06,1.8953376072822875e-06,-2.1958231328726915e-05,3
6.396347761780779e-06,-1.2124330733864674e-05,-1.6459710602361067e-06,2.90089054218067e-06,2.1846823941071847e-06,-3.7808967048313107e-06,1.0529193108741061e-05,7.142733914911905e-05,-1.7037879331222663e-05,-4.7968152707095435e-06,1.691040634036313e-06,-1.768210598178773e-05,3
-6.096932755526884e-06,-1.0664415825396815e-05,-1.259318210367695e-06,-7.267862312694008e-07,4.1932012000384647e-07,-5.324893651589673e-08,7.760575478889448e-06,4.761881804557682e-05,-8.613469737510257e-06,-7.198034539924158e-06,2.7837267280969195e-07,-1.4161027432697426e-05,3
-2.1604241839894236e-05,-2.9034654640161854e-06,5.7645830761818765e-06,-4.064979864762234e-06,1.130253305149965e-06,1.961488333980491e-06,4.375280982203709e-06,4.695943000543024e-05,7.923496095632116e-06,-6.201875252702629e-06,1.049594018432493e-07,-9.556396198638331e-06,3
-3.570077945012085e-05,-1.379464544159245e-06,5.742003915764189e-06,-2.8481990000911033e-06,1.1034687352236994e-06,2.5972785548901347e-06,3.8834284071319645e-06,5.896774181784628e-05,2.0542324719656262e-05,-2.151028748685355e-06,1.4509441092228238e-06,-4.359549377234337e-06,3
-5.116367311126792e-05,-1.197256554718645e-05,-6.082087041781599e-06,3.8931172790159283e-07,-5.604102036698019e-07,1.652336188686097e-06,3.255083557168339e-06,6.524253660237942e-05,2.1619419857326512e-05,-1.6721195216113528e-06,3.0326276734628886e-06,-3.1111478222987343e-07,3
-6.211327375162122e-05,-2.5350433049582355e-05,-1.7067823963505404e-05,8.323642237618443e-07,-1.649449586582113e-06,-3.4827900683076683e-07,1.200841158889596e-06,5.53475240302522e-05,1.597626262143157e-05,-3.7703787470611317e-06,3.4071213104511776e-06,2.378110629811166e-06,3
-4.046390459418884e-05,-2.2877807377899598e-05,-1.6605747436608823e-05,-4.702845158689969e-07,-1.6184964530923592e-06,4.0109895981714104e-07,2.0898719563586588e-06,4.065433315973133e-05,4.801286734904115e-06,-4.785582554526503e-06,2.208433996009594e-06,4.333936888354954e-06,3
2.4237166631051888e-05,-3.835021119522779e-06,-6.944732206478389e-06,-3.719192777835894e-08,-4.1707201724168484e-07,2.700197173157677e-06,9.660482104340008e-06,3.7492062693196296e-05,-1.1468615684730252e-05,-6.6353618048343935e-06,9.805963345953363e-07,3.8798352864760494e-06,3
8.500962482166171e-05,1.3745334070398086e-05,1.7506432977398135e-06,1.6762079024655054e-06,5.650042041871609e-07,2.8411535608449527e-06,2.419029700338532e-05,4.1829278130413315e-05,-2.465991073644014e-05,-7.331534463096436e-06,-5.686818128228334e-07,2.697140556537428e-06,3
8.920666862361847e-05,2.063668942803858e-05,4.165770894429033e-06,2.3450537826827683e-06,9.933585024268361e-07,2.4019682016571262e-06,3.7547414959729045e-05,3.865383602329097e-05,-2.9220901121376995e-05,-4.072410699864505e-06,-2.737704432426043e-06,4.5676832884516344e-06,3
4.755600008725601e-05,2.1652192665244773e-05,4.313485300918995e-06,4.721583422744142e-07,1.7531305133107512e-06,2.4416855586638606e-06,3.6883935622721774e-05,1.9350201584642367e-05,-2.184839145077385e-05,-5.315533098327228e-07,-3.6588426200186797e-06,6.635777153665064e-06,3
7.912472312001766e-06,2.4635419224255517e-05,2.0005070350710453e-06,-2.0621053886116507e-06,1.8579391349118722e-06,6.409908616452346e-07,2.1161971621633142e-05,-2.2604857150842677e-05,-4.191767430582138e-06,2.4184068294735347e-06,-2.957004312580035e-06,6.2413507064841435e-06,3
-8.199228199469904e-06,3.0338093273680974e-05,-7.98652270677757e-06,-2.156394947682383e-06,2.0650536309183958e-07,-2.336483157985427e-06,-3.2374079495013605e-07,-8.35606755688322e-05,1.1333584455020223e-05,7.074584370887582e-06,-9.247290875213771e-07,3.7166831352391537e-06,3
-9.30797828426325e-06,3.312634021170196e-05,-2.171376518648209e-05,-7.598252287980185e-07,-2.338197566270153e-06,-3.0477680314656395e-06,-1.7818270747196504e-05,-0.0001243671033836968,1.8160043772377527e-05,1.3528854602997774e-05,5.867728610893472e-07,-5.160028711164214e-07,3
-8.132584517908226e-06,3.1542279567150304e-05,-2.7523196246921102e-05,-6.262051193603887e-08,-3.327738562136361e-06,-1.3563036017276355e-06,-2.5862229802441403e-05,-0.00010976745203230904,1.8686250059993413e-05,1.9471320908453392e-05,-1.0903083263671554e-06,-3.0867652857007e-06,3
-1.2496755400146383e-05,2.2779669086069572e-05,-1.64792221101499e-05,-5.043725521107573e-07,-1.2486647730868565e-06,1.3403038884384958e-07,-2.8903706787899082e-05,-6.891065469123792e-05,1.324748205157348e-05,2.061866602019117e-05,-3.00688295843079e-06,-1.3327309712212617e-06,3
-1.9932141376919952e-05,2.8823995072183267e-06,1.0152882753644966e-05,-1.1176537524144503e-06,1.9846505351812295e-06,5.146165353278136e-07,-3.118247185863983e-05,-4.6562573467563406e-05,6.407031555253048e-06,1.6332250292803104e-05,-1.4537061506006254e-06,2.0957136422692483e-06,3
-2.3435654109765232e-05,-1.8011422568875725e-05,3.8843968185055566e-05,-2.8594822361190994e-07,3.1232408518985263e-06,5.724389283471223e-07,-2.8838561728788685e-05,-3.9946742740423954e-05,3.8727485132937005e-06,7.6102654421928495e-06,1.4038000976073707e-06,2.7562486605968464e-06,3
-2.2165004597486558e-05,-3.017148586535515e-05,5.1684116578645495e-05,9.690964012510217e-07,1.9378760795377633e-06,7.333236868774653e-07,-2.1012045193687393e-05,-2.5906804911063754e-05,3.886665711613952e-06,-5.140380533016544e-06,2.2803678364869643e-06,1.1481048835003632e-06,3
-1.6706803150471838e-05,-3.815269066304365e-05,4.075651427506828e-05,4.761050204500886e-07,-1.854047892348533e-07,8.908182164779439e-07,-1.3066981587800865e-05,1.9764678412042935e-07,2.807735034849592e-06,-1.4106772828290158e-05,9.431720754828452e-07,8.633116935200746e-07,3
-8.13083671937782e-06,-4.111753453802639e-05,1.8942786534381363e-05,-6.256391936576684e-07,-2.9097143688077555e-06,1.2262284579283494e-06,-9.034280410509833e-06,2.7404527686645092e-05,-3.5515102924961486e-06,-1.2988086906167809e-05,-2.9528546115186056e-07,1.7778191741999227e-06,3
-4.7477846052790936e-07,-3.424865546824698e-05,6.187978765705266e-06,-3.791650938331047e-07,-4.307048418463557e-06,2.4049279958183285e-07,-7.773436876240443e-06,5.1592323176197375e-05,-1.3130429501954684e-05,-8.932828441025714e-06,2.7961972332741176e-07,1.8609751339362856e-06,3
4.212201086862727e-06,-2.2802404648598662e-05,2.9336211510877623e-06,1.1381137485572196e-06,-2.104375059262237e-06,-2.7127944148126438e-06,-5.629534632061791e-06,7.138461832806225e-05,-1.5701623222456356e-05,-8.742216187036584e-06,1.9542717234307236e-06,1.7778274670086482e-07,3
6.993538058644767e-06,-9.22458353865409e-06,-5.486368976066618e-06,2.843976447963103e-06,1.5677466603538053e-06,-2.9073933165895733e-06,-1.0146203014913738e-06,7.649877969074847e-05,-9.238068873561043e-06,-8.38986378056992e-06,3.131622591586108e-06,-1.779451368205529e-06,3
9.096119459367414e-06,7.002334545084431e-06,-1.930375144421679e-05,3.805519817772025e-06,2.5870930345405977e-06,8.067425251528676e-07,2.7358954717077347e-06,6.47692613434136e-05,3.0410118841883963e-07,-2.2121569469687415e-06,2.217319352009319e-06,-1.2783910259994225e-06,3
1.0049808911702925e-05,1.9078749159242965e-05,-2.6907504622331885e-05,4.195522481329824e-06,1.6369290078796827e-06,2.536521203555102e-06,1.4774656953914046e-06,4.6262754754326554e-05,7.5390641143474356e-06,7.646522479440676e-06,-1.1566187919098968e-07,4.3063577826748213e-07,3
7.4404790132566e-06,2.2856165979183772e-05,-2.987564949455808e-05,3.3063355986545305e-06,1.3865963322561794e-06,6.176879667212896e-07,1.4935956209153184e-06,3.06849386188938e-05,9.159159700241226e-06,1.1185553134884205e-05,-8.663339491438546e-07,1.1072345178725125e-06,3
1.3258028625361398e-06,2.0327153213745948e-05,-3.048659002346729e-05,6.395150363646216e-07,6.259754258548592e-07,-1.0354227300193538e-06,1.3013131502774475e-05,1.896780613406564e-05,7.526816238466371e-06,3.2675497032518077e-06,-4.633179901672758e-08,7.529402299436609e-07,3
-2.3470648647809482e-06,1.5821467229529554e-05,-2.2110568144293364e-05,-5.704456607370094e-07,2.801325402591984e-07,-6.483747998812416e-07,3.1315236754866337e-05,6.472839064896898e-06,6.234533509362523e-06,-8.749856126142707e-06,4.444836186405909e-07,-9.978205352874674e-07,3
-7.127940976082032e-07,1.2765237993334952e-05,-3.5012625069780846e-06,7.85647335102034e-07,2.5086288897105417e-06,4.2960969605439805e-08,4.125545711328687e-05,-4.087447136669096e-06,3.783796232069391e-06,-1.5833128336068588e-05,1.0519530197037795e-06,-2.8429029069560585e-06,3
1.1380431823448797e-06,6.505263863458855e-06,1.8760769970083806e-05,2.2509800079689677e-07,4.1102793540343875e-06,-1.4747317136768218e-07,3.591301055928006e-05,-1.3117671847990151e-05,-2.2619576105466876e-06,-1.3947568194709042e-05,9.434497958064093e-07,-2.644787529298106e-06,3
1.4225776040147212e-06,-6.439702699479859e-06,2.3188510739073923e-05,-4.768666465766654e-06,2.2094351245730715e-06,-9.827040723504443e-07,2.2718203315637484e-05,-2.6258400126554812e-05,-7.272104589037936e-06,-5.16660147299396e-06,-5.833632488331002e-07,-1.3564439984889303e-06,3
3.1999058139532143e-06,-1.8766325496498593e-05,6.177750129554648e-07,-1.058220826318282e-05,-2.74814434985595e-06,-1.771273890534788e-06,1.1952022905039858e-05,-3.659581668581761e-05,-5.556054551725552e-06,4.070874760640532e-06,-1.2763108884961231e-06,-1.039310346374364e-06,3
5.702072608994079e-06,-2.4126618203568634e-05,-1.6822372010483544e-05,-1.1748046507061713e-05,-6.522195081358232e-06,-9.520514904274665e-07,3.6749150248414324e-06,-3.5718811320748424e-05,-1.2565909590845897e-06,1.1742880918152098e-05,-1.8456453665781044e-06,-1.654904640291677e-06,3
5.956926641604098e-06,-2.047626637897631e-05,-9.636732069774982e-06,-7.16033677474072e-06,-4.138798482054288e-06,2.277603314459546e-07,-6.707225573020371e-06,-2.300551794089877e-05,-8.155275183437723e-08,1.555568618205344e-05,-3.109732587344043e-06,-1.403196887451874e-06,3
3.4461328031441375e-06,-3.860436783404765e-06,1.3302895272207762e-06,-1.5345154632400144e-06,-1.2092409392363223e-07,-8.365748190749777e-07,-1.81262711300855e-05,-8.521911160919003e-06,-2.527843366536357e-06,1.1259645603740957e-05,-2.877939182991e-06,-6.97136755745224e-07,3
-2.1273064363548475e-08,1.8565782003071157e-05,-9.958335647933387e-08,9.420437824671838e-07,-9.382978959907089e-07,-1.2374811541511245e-06,-2.463242609350602e-05,-1.4754146580486547e-05,-6.813761545147825e-06,3.3090848071790935e-06,-1.803647756360317e-06,-1.3289289227270037e-06,3
-2.4259323312866232e-06,2.824966417791244e-05,-6.920230469463806e-06,1.5305976442058177e-06,-3.0063794911090986e-06,1.1621629186406735e-06,-2.236305205378593e-05,-4.140526743024474e-05,-8.832950098009084e-06,-3.193014249462738e-06,-5.790144667927665e-07,-1.8543029487245879e-06,3
-3.1677852398919696e-06,2.283250201157295e-05,-6.814534641713312e-06,2.9417722798273723e-06,-1.2747255963875391e-06,3.2608815878813096e-06,-1.5936616405323415e-05,-6.182061383396628e-05,-7.1297628941117476e-06,-5.817756092969513e-06,7.122954164869265e-07,-1.2811496669292755e-06,3
-1.952318328375796e-06,1.3414839387738645e-05,1.3039068326533056e-07,5.629826569793734e-06,2.6805601083190887e-06,3.941165152709704e-06,-1.2684860974525035e-05,-6.044755241622875e-05,-4.187484384797221e-06,8.219155332678585e-07,1.0924272609506078e-07,-9.658656491827882e-07,3
-4.10332957922516e-07,2.9057972330573736e-06,5.891907840052812e-06,8.142837913278875e-06,4.781804584071161e-06,3.154251207714707e-06,-1.3284741899286537e-05,-3.7100301700704344e-05,4.2340331001649e-07,1.1124625542560141e-05,-6.683783960079954e-07,-3.0160067065575353e-07,3
-2.1918086254993905e-06,-7.992623488619275e-06,8.149411409250894e-06,8.098465858376682e-06,3.2489008250976987e-06,8.79456546079793e-07,-1.304459164402351e-05,-3.353171217559094e-06,6.99091005942508e-06,1.2387796246210607e-05,2.5436936326981905e-07,1.6412905536427633e-06,3
-5.3554829548572105e-06,-1.526004761959644e-05,5.896033211883953e-06,5.096135273772622e-06,-5.992476360783784e-07,-1.3952438332750507e-06,-6.849147320141657e-06,2.5853992033849793e-05,9.40442137824398e-06,5.209076991378151e-06,1.6969824032374496e-06,3.176855223219356e-06,3
-6.169071362836694e-06,-1.843018417491777e-05,2.9456835503341323e-06,2.107845443243764e-06,-3.2883017383684493e-06,-3.7767967332474623e-06,2.514053627008665e-06,4.903513587224831e-05,5.771964725220405e-06,-2.8429626032765322e-06,3.875635569274213e-06,2.496824800500751e-06,3
-7.541178720208356e-06,-1.8094910212483625e-05,1.0983203641928352e-05,2.098572284739535e-06,-2.86105593123412e-06,-5.564443644223816e-06,4.262608408822372e-06,6.965797252977569e-05,5.38037500648257e-06,-8.48183249211528e-06,4.168374498199256e-06,5.297030171621526e-07,3
-9.336302872665234e-06,-1.2445015767219568e-05,2.8488870750670873e-05,3.1119700594887714e-06,-1.3150082324657763e-06,-5.293288089865106e-06,-1.9975911437499264e-06,8.393053601903319e-05,1.1485072244915963e-05,-1.0468844001070905e-05,6.837414816187182e-07,-8.537628619900976e-07,3
-6.993172654196752e-06,-2.5941322035506353e-06,3.9419471258120814e-05,1.608662926979084e-06,3.7351895744960673e-07,-3.0827612794889898e-06,-5.047556735196192e-06,8.263306809875544e-05,1.4786333964519744e-05,-8.715826591983658e-06,-1.6430447316833452e-06,-1.2165103152621639e-06,3
-2.9588858562542324e-06,7.48831313713303e-06,3.587215586170349e-05,-4.115026762468386e-07,2.2379604958588554e-06,-6.343730437804905e-08,-2.6248441686619876e-06,6.2204952778214e-05,9.237008360302239e-06,-6.386327882644822e-06,-8.121490565696511e-07,-5.19583047015666e-07,3
-7.849659965587593e-07,1.706428598248921e-05,2.463220231164601e-05,-1.0038250904615629e-06,2.9825911733091574e-06,1.5910627310259538e-06,2.8259520314986863e-07,3.2592624402776495e-05,-1.8056812945068224e-06,-6.660481096201122e-06,1.3737075834634906e-07,1.518710015088526e-06,3
1.4442193873308572e-06,2.6088832469147803e-05,1.467899525699701e-05,-2.348507712577081e-06,3.4614214534980907e-06,2.962560036402143e-06,3.715872332517468e-06,1.0011989699838348e-05,-1.0928250186883029e-05,-7.445652262431125e-06,1.8759921239817906e-07,6.534480144362729e-06,3
5.5269825667052534e-06,2.986012565779984e-05,7.3077976988209575e-06,-3.979320059249338e-06,2.5466764619477644e-06,5.302561553973682e-06,8.474968515629347e-06,-1.3749105869810651e-06,-1.3486817095580308e-05,-5.234186833296053e-06,-8.922171737392313e-08,1.473748809055673e-05,3
1.1919688992421095e-05,2.370546853995292e-05,-2.6051443869757524e-06,-4.3001159776945505e-06,-1.261725544635059e-06,5.132756873939579e-06,1.437440986843798e-05,-1.9518528893624783e-05,-1.1253407770242052e-05,-6.866089123484304e-07,-8.361172493781581e-07,1.9969570550011856e-05,3
1.8263317388503542e-05,9.946615508638868e-06,-2.5776869934096857e-05,-5.083373537930479e-06,-3.7236882199871358e-06,2.3370795613377916e-06,2.1404403151734768e-05,-6.138131950554953e-05,-7.179284423966062e-06,3.3005292544660337e-06,-1.5273535087602408e-06,1.7520940734502086e-05,3
1.8796790086728976e-05,-8.860758283745241e-06,-6.206283745261126e-05,-7.227189241305886e-06,-3.4378029624588122e-06,8.560872204017046e-07,2.7502964594345806e-05,-0.0001132016641256603,-2.3269025860642648e-06,5.28983951390294e-06,-8.426273610975521e-07,9.379293418322336e-06,3
1.2482448520338617e-05,-3.1092730412615414e-05,-8.659269607162913e-05,-8.826058600804092e-06,-1.6045215412676467e-06,1.1993736714833788e-06,3.0013448876844358e-05,-0.0001243379514736791,1.7283344553552217e-06,4.764658014043947e-06,4.2332909204697513e-07,-3.168696904459592e-06,3
4.848103287387684e-06,-4.1851042545823665e-05,-8.023001599637818e-05,-7.74412192738492e-06,2.1162932004232525e-06,2.0786212491511935e-06,2.5978185543787346e-05,-5.961417687314531e-05,3.2764351334362024e-06,2.1979032947854376e-06,9.830910680061733e-07,-1.8004711622667632e-05,3
-1.3758745924101202e-06,-2.7865402918097878e-05,-4.976121933881701e-05,-3.4459740779582293e-06,4.338405153530244e-06,2.8277765630961006e-06,1.4479491074249842e-05,2.6439197235516828e-05,1.8066258115369604e-06,1.3629355048719583e-06,1.1246210006210125e-06,-2.9183938672035033e-05,3
-8.025719298362062e-06,-3.8069513868682543e-06,-1.1683927432994507e-05,2.3321092929490355e-06,4.119422272111641e-06,2.2074190403347778e-06,-3.1635302323030454e-06,5.572757719455276e-05,-9.193037863789918e-07,3.8014738008460857e-06,7.949404374046195e-07,-3.215022784167308e-05,3
-1.3615746823204658e-05,6.71816060274647e-06,1.9413755462451363e-05,7.537058225007977e-06,3.675814870633345e-06,-1.8831650463881081e-07,-2.5177178498144244e-05,3.746363185325364e-05,-9.227693000469208e-07,6.274831076461455e-06,-1.3878942104606112e-09,-2.5714978290204313e-05,3
-1.4500467908940294e-05,4.2730271472091214e-07,3.6222176626861574e-05,9.505416337968768e-06,9.051321132164694e-07,-3.714500339769411e-06,-4.210601026518606e-05,2.0353551087144112e-05,3.2085186885281503e-06,6.385050205485835e-06,-6.731894490879596e-07,-1.5773542493998447e-05,3
-1.1420137237665186e-05,-9.942193325686879e-06,3.842560767828809e-05,6.193571179866328e-06,-3.357490982835888e-06,-6.533055578413695e-06,-4.308202690324933e-05,1.9604893826338886e-05,7.817355513088835e-06,3.4567078604704264e-06,-7.601489271986342e-07,-1.104229759426043e-05,3
-7.053910995598412e-06,-1.3905286513177697e-05,3.159116214133293e-05,1.4714802432249048e-06,-4.765149715746235e-06,-6.546159157471798e-06,-3.207549461176729e-05,2.719218879572601e-05,9.445634296361895e-06,4.003706438158611e-07,-3.459423635629732e-07,-9.04730141639148e-06,3
-1.809158293726103e-06,-1.201930964267838e-05,2.8066819372649024e-05,1.5923119520019674e-07,-3.74772400439426e-06,-5.118134648259968e-06,-1.8268388411761188e-05,3.0685582163604855e-05,5.710994813486731e-06,8.145887378253503e-07,-2.843933358451355e-07,-4.054604903999512e-06,3
4.2613438938937325e-06,-8.429787926606078e-06,3.3444696180522485e-05,1.4831551086258695e-06,-1.8976855954322481e-06,-3.549403057293702e-06,-2.4228704275477547e-06,2.4007051331310407e-05,-5.351578768193463e-06,9.729971212218886e-07,-1.5363916942967393e-06,2.070001487725952e-06,3
8.37965322765016e-06,9.228444093821325e-07,3.8460390474059825e-05,2.4520620519635473e-06,-1.1475902367983802e-07,-1.5405892782583088e-06,1.3267073199866223e-05,6.7050736116195e-06,-1.8046530298419817e-05,-3.0533053146951367e-06,-3.0875907869044865e-06,9.168467693343783e-06,3
7.112895826535522e-06,2.0770013684159145e-05,3.308686926472882e-05,1.1860292472590848e-06,-1.4689466378093545e-06,-8.475777475373798e-07,2.0594804705919426e-05,-1.8793187658879824e-05,-2.2340129182005557e-05,-7.651470431169419e-06,-2.6838398567360566e-06,1.8584951325495085e-05,3
8.260008251653757e-08,3.9307086273587356e-05,1.7606815697992384e-05,-1.4896139139031888e-06,-5.602412404969464e-06,-9.821334781379925e-07,1.793132612378152e-05,-3.749046453539222e-05,-1.4277430453499917e-05,-8.9504843222294e-06,-1.381672775228471e-06,2.8925937000199122e-05,3
-9.050761450897018e-06,3.810081433179308e-05,6.975541872702944e-07,-2.863990098457615e-06,-6.3163601819992216e-06,5.575301333133365e-07,1.2327362832992245e-05,-3.38034942114003e-05,1.6173000622525075e-06,-7.063911750497446e-06,-4.038138353914629e-07,3.6662515311266086e-05,3
-1.3323420495262753e-05,2.029109713051792e-05,-8.538530641766601e-06,-1.4007984655069342e-06,-1.2993568297985505e-06,3.0236416609151993e-06,8.147889108263537e-06,-1.6796126883645904e-05,1.3701809003945047e-05,-3.519189873629323e-06,1.4439202130685167e-06,3.4082271886091234e-05,3
-9.210183518036462e-06,5.175288004898757e-06,-1.0827985566407257e-05,1.372978779242415e-06,3.954068929460504e-06,4.9942684030478e-06,3.892861994972771e-06,-8.333068642880655e-06,1.617572555366094e-05,6.266664171630393e-07,2.7849589960883747e-06,2.217292561914078e-05,3
-1.0021451753503152e-06,-2.043044669935147e-07,-1.334343834300407e-05,2.8272868500517477e-06,5.2851278677666495e-06,5.865206422606984e-06,-1.2828332898234892e-06,-1.1313283512018246e-05,1.3705238398272382e-05,4.917366652727427e-06,2.6883488785706463e-06,1.4420831212074479e-05,3
6.786824627318633e-06,-3.1989633459810663e-07,-1.5805071972268415e-05,4.206273425608473e-06,4.6411961291455046e-06,5.370507842470977e-06,-6.0768042766018904e-06,-1.2905681704371502e-05,7.503396328089639e-06,6.387097094122441e-06,2.926527762897021e-06,1.5511584884478023e-05,3
1.273572819229999e-05,1.032959891086587e-06,-1.4293160524187564e-05,6.378541452072116e-06,5.050501920647062e-06,4.749679771355596e-06,-9.982611410590504e-06,-7.658545713892769e-06,-5.353169090977898e-07,4.30896832718046e-06,3.5610601680437302e-06,1.7216512435358397e-05,3
1.3976839833128408e-05,6.869060306087306e-08,-1.364328838757147e-05,5.3190617233436326e-06,6.206886912761858e-06,3.607534268888737e-06,-1.0422291513569658e-05,2.029613606508281e-06,-2.41781274644582e-06,4.397356531418132e-06,2.8171435716974332e-06,1.2642149140202719e-05,3
8.656048703548926e-06,-5.218550821779377e-06,-1.795458082262792e-05,5.3131491545187736e-08,6.156332215345012e-06,-3.271828821026254e-07,-4.464453172679429e-06,1.606506245658248e-05,1.4666373367554443e-06,8.052338037014618e-06,-4.442220088157067e-08,1.393976123492878e-06,3
-9.968206485938822e-08,-1.2387882807613192e-05,-2.163675481655838e-05,-5.286912161265176e-06,3.823254425039942e-06,-4.369521185108143e-06,3.2941840473256083e-06,3.125835067988354e-05,3.5053615221755636e-06,9.727310375506399e-06,-1.6997974916455803e-06,-1.3462880520212044e-05,3
-7.249063432094193e-06,-1.618020191520341e-05,-2.1262478773995836e-05,-8.51199081215703e-06,-1.002161762110433e-06,-4.781834286757236e-06,6.71072168980633e-06,3.6703228823528956e-05,2.0437589719757554e-06,5.808247742146897e-06,-3.890582769684893e-07,-2.772099741293834e-05,3
-9.587799095953282e-06,-1.6099597066886383e-05,-1.8361601980126895e-05,-1.0131942048937232e-05,-5.0452504920879646e-06,-4.317969626208254e-06,6.443479276202903e-06,2.6948367650087823e-05,1.834127691657705e-07,-1.132353581431191e-06,1.3753663685100609e-07,-3.673849169311668e-05,3
-7.5680230278079254e-06,-1.741637698757375e-05,-1.4194719972208727e-05,-9.968630223714266e-06,-5.2271680932032946e-06,-3.851809852472957e-06,4.586949957150516e-06,8.008756758646597e-06,4.851613972144487e-07,-5.870944331223861e-06,-7.177298920008896e-07,-4.1283095624980486e-05,3
-3.746349075341502e-06,-1.970920500118967e-05,-9.18653665843899e-06,-8.064870898422252e-06,-4.484500694434239e-06,-1.5313698755012063e-06,1.9545953974773992e-06,-9.677664323619741e-06,9.68127212204551e-07,-7.596249596033817e-06,-1.5911532155753235e-06,-4.7231354196957506e-05,3
1.8236710021075055e-06,-1.7981442817897764e-05,-1.2032643041091818e-06,-5.4982586328934675e-06,-4.781192237864569e-06,2.143417158611153e-09,1.1549762692096959e-06,-1.5959034910351114e-05,-2.7033481182987124e-06,-7.273342498502895e-06,-2.587919401819433e-06,-5.334812909946811e-05,3
1.0402690439878262e-05,-1.043723368437573e-05,9.465982393445542e-06,-1.8727049191865603e-06,-4.595212657103916e-06,-3.054040145482455e-07,3.0976372751306824e-06,-7.210527704020344e-06,-7.5901145681661556e-06,-6.015439765996442e-06,-2.0405102896028542e-06,-5.382736246569946e-05,3
1.87471780072268e-05,5.487813247787529e-07,1.7673125245856592e-05,2.4039897887976903e-06,-3.112424896536194e-06,-8.961318201749022e-07,3.937585128477847e-06,8.465242558264674e-06,-9.206106038998125e-06,-6.680852053810901e-06,-1.1117689104235702e-06,-4.48798267377831e-05,3
2.0360492411820992e-05,1.0677800038175956e-05,2.1737901100062198e-05,5.020329356161743e-06,-8.270257415460298e-07,-1.4814358983157957e-07,1.9079517806491645e-06,1.9272331238148273e-05,-1.0183847469397854e-05,-7.927682332054638e-06,-1.4975471114767323e-06,-2.1190105134406744e-05,3
1.3844421657467777e-05,1.8789565589394193e-05,2.7287337011162603e-05,6.631935992124715e-06,6.488652691554395e-07,3.273140676513341e-06,3.6356691455886625e-07,2.5759635999486578e-05,-1.1165994522474018e-05,-8.315887614191051e-06,-7.057628716518903e-07,1.1380373169126796e-05,3
3.7395072954048337e-06,2.2822613679268632e-05,3.4436214166470576e-05,8.375310316819614e-06,1.8682462823400563e-06,5.205204268320911e-06,1.7551772112962144e-06,3.164961295561239e-05,-7.034496284471776e-06,-8.761963695232851e-06,1.0683791383406048e-06,3.514792215038317e-05,3
-6.259451065597442e-06,1.916684227177194e-05,3.040581425177754e-05,8.753654056883358e-06,3.49969473378439e-06,3.487423803803753e-06,4.830359419354386e-06,2.7793010750335843e-05,2.153390885432083e-06,-6.242938882241226e-06,1.3007101699651164e-06,4.8464028557535204e-05,3
-1.3129233408375871e-05,1.1469287602255787e-05,1.1515337599953537e-05,7.468768511150771e-06,3.76372977372719e-06,2.6922126368463696e-06,5.793403354946149e-06,8.313407762294121e-06,8.940958075002104e-06,-1.1592007674296536e-06,7.940454005006737e-07,6.188180165964634e-05,3
-1.565754747818284e-05,5.605074838707704e-06,-7.412996384439681e-06,5.339352012546938e-06,3.0658394272474835e-06,2.6698976072370608e-06,3.935940965896932e-06,-3.1178601958209236e-05,1.0486313731200923e-05,2.5046948127182655e-06,6.836622857658492e-07,7.100614141714719e-05,3
-1.864067129483376e-05,1.8280808218618638e-06,-1.4707257138647502e-05,2.9290339158544345e-06,2.2699993322112957e-06,3.938974386872804e-07,2.086406074836318e-06,-8.941041801697131e-05,9.208499433569388e-06,6.616272315682721e-06,-1.39086272510469e-09,6.301301188658379e-05,3
-2.3385952045419883e-05,-2.9523070210491826e-06,-1.4291404675075902e-05,8.699841424558684e-08,9.82312528389034e-08,-2.317764367352588e-06,-9.536684622619907e-07,-0.0001175494261350241,5.9036249821103835e-06,1.2803898333266618e-05,-1.3819125406145864e-06,3.717773910070036e-05,3
-2.2331831298186433e-05,-8.874832343346394e-06,-1.4655229097806675e-05,-3.5194844046217447e-06,-2.2695990510118876e-06,-4.500328720728338e-06,-4.293527605289515e-06,-7.170502353748643e-05,1.939387944246637e-06,1.8714243668866443e-05,-2.1394854533980026e-06,6.152573720448474e-06,3
-1.1915405321717282e-05,-9.40311776835661e-06,-1.1561681622036984e-05,-5.347114164592643e-06,-1.660464932156172e-06,-7.019617901110952e-06,-2.7337050078254474e-06,3.5031664287262286e-06,-2.225303720949173e-06,2.183402115654841e-05,-1.1887242830056167e-06,-1.3501351478992112e-05,3
1.3761255063321346e-06,-2.0910510736514412e-06,1.536330883607894e-06,-3.369379181029743e-06,4.2007105828212587e-07,-6.9184635889277446e-06,9.716428102004133e-07,4.455027399509866e-05,-5.786883872435227e-06,1.7916524046860525e-05,1.114757826817914e-06,-1.5212158584650026e-05,3
8.830805886340491e-06,4.843509604745795e-06,1.233472151903766e-05,7.314910287738801e-07,1.5634275934642759e-06,-2.683006665839598e-06,-1.7864381884131873e-06,4.8998577629973286e-05,-4.949270913065472e-06,6.557765222459741e-06,3.180648775008481e-06,-8.001114392129658e-06,3
7.4746096873320145e-06,4.924290689747983e-06,6.314645288974833e-06,3.6488232698466485e-06,3.8464096728795044e-06,2.145727643631757e-06,-1.3908615502035237e-05,3.739308490619769e-05,3.9995976613570054e-07,-4.126743556848759e-06,3.809078392295121e-06,-2.3021672559824287e-06,3
1.7409481557199941e-06,-5.574626329965823e-07,-1.0299410860416013e-05,2.2278674557448504e-06,5.119499488900313e-06,5.153242906336077e-06,-2.6163573938944144e-05,2.2073713357768188e-05,5.859103742338659e-06,-1.045510486152943e-05,2.096384305013987e-06,-1.3943188883208555e-06,3
-2.8698065435758873e-06,-6.838133267179909e-06,-1.9483630055470822e-05,-1.9861331821847847e-06,1.711604746421612e-06,5.348936508861886e-06,-2.8182219587478967e-05,1.1510491676517314e-05,6.553510023393234e-06,-1.606174869253066e-05,-6.106588751963965e-07,-7.719471666442101e-06,3
-3.502309895954343e-06,-1.004708379235465e-05,-1.534008347832511e-05,-5.152032170754589e-06,-2.850103679694054e-06,2.5059986411335918e-06,-2.4194267710165873e-05,6.917704285158731e-06,1.5442762083202905e-06,-1.871624469107775e-05,-1.0873115497325052e-06,-1.834160342141042e-05,3
2.157370351810273e-06,-1.0898183822830694e-05,-1.0820421818460427e-05,-6.993061119539947e-06,-6.531526186934779e-06,-7.508631863614831e-07,-1.912096519075293e-05,1.0190707329150628e-05,-3.886743806303114e-06,-1.464322497068318e-05,2.4363446055841335e-07,-2.074740442582902e-05,3
1.3756285973807269e-05,-1.0104990535308937e-05,-1.1776307841286715e-05,-7.184954581069871e-06,-8.263534608961523e-06,-1.414610506640892e-06,-9.415024162128347e-06,2.082416861224925e-05,-3.0912110316321187e-06,-6.848578305480319e-06,5.770213282351944e-07,-1.3381646344798854e-05,3
2.662116447225618e-05,-4.678971170608538e-06,-7.496701917631711e-06,-5.214151888497868e-06,-4.630450473586057e-06,4.06389322255408e-07,5.384410283956031e-06,2.5570157432944042e-05,4.4825535392296105e-06,1.2757794454176834e-06,-8.046177123530936e-07,-1.1305892019190603e-05,3
3.502508556165857e-05,3.879346126325738e-06,4.495408640811581e-06,-2.733338316176739e-06,1.0303242761304031e-06,1.4415187140261602e-06,2.2538821413422788e-05,1.5601856878595424e-05,8.74752333921826e-06,6.6997654521466e-06,-1.9567532863887896e-06,-1.8013087175343223e-05,3
3.7133470943209436e-05,7.613255478950904e-06,1.5226827385517783e-05,-3.2080631069390075e-07,3.1599543609598042e-06,9.608017025090003e-08,3.622045906502928e-05,-3.0207352767772906e-06,1.6971708189081178e-06,6.880078396466835e-06,-1.3275944122161864e-06,-2.1846250993490766e-05,3
3.475369160211168e-05,4.895778937514231e-06,1.880367897592136e-05,2.40462967327215e-06,2.0375031518088475e-06,-1.7687837208475506e-06,3.892969895591372e-05,-2.0318159491819106e-05,-1.0266492536233498e-05,4.6242720077043415e-06,-5.877184506677399e-07,-1.8669964247838084e-05,3
2.776381576655167e-05,2.915768819586715e-06,1.61830963271809e-05,3.919615614599061e-06,9.957675058772018e-07,-2.5270542578164795e-06,3.0503637254469126e-05,-2.987676705844514e-05,-1.6279467422392195e-05,2.8060940716668804e-06,-5.249305762665813e-07,-1.203908498845215e-05,3
1.603574042350373e-05,4.478641219827058e-06,1.1396134105558334e-05,3.3371199203512773e-06,1.610126374377807e-06,-2.064843712976267e-06,1.92272024048231e-05,-3.049402088863263e-05,-1.2401177383460153e-05,8.778539566086473e-07,7.525556431441836e-07,-4.957794901675813e-06,3
-9.472834454232804e-07,5.700181432350624e-06,5.273510247275365e-06,3.152944009362374e-06,1.2554168280190777e-06,-1.4688419360991657e-07,1.4724017163107351e-05,-2.291091540110745e-05,-4.123936372655425e-06,-6.476098951501878e-07,2.6562389404784244e-06,-1.4914478662948912e-06,3
-2.4345845133500734e-05,4.7141148968847405e-06,-1.6285503667714544e-06,3.951990428780041e-06,-3.110385232284759e-07,3.0127460017621173e-06,1.540561169826751e-05,-1.0396583978678787e-05,2.646436515512539e-06,-5.885056721108544e-07,1.995060551989374e-06,-3.7457800135511906e-06,3
-4.7767868883855116e-05,3.510432890758287e-06,-6.800044027796561e-06,3.1786675524224477e-06,-7.237397904436721e-07,4.875261198235991e-06,9.468688743332401e-06,-1.279008678483859e-06,7.243866835275969e-06,1.750935079824287e-06,-6.03519687399042e-07,-7.837345731618813e-06,3
-7.07328433190064e-05,1.4732295287386721e-06,-8.982115979187339e-06,7.450907750229925e-07,-1.743370301033812e-06,3.8875211467229815e-06,-6.431595064224068e-06,-5.115272889831164e-07,7.116868095181073e-06,5.358559436108663e-06,-1.9256317474847907e-06,-8.636253398473084e-06,3
-0.00010427760960200338,-5.2229553787035154e-06,-8.642440705419994e-06,-2.1622993494001084e-06,-3.7994731503458796e-06,-6.328051148326277e-07,-2.4893800745322466e-05,-5.610378075224176e-06,3.6457818745431e-06,5.7251193767082725e-06,-3.214681382730049e-06,-5.610523621015641e-06,3
-0.00012909081534834271,-1.0894160235369743e-05,-8.645854470569801e-06,-4.7118606829359765e-06,-4.343489448573673e-06,-7.680457255773114e-06,-3.6895561269456115e-05,-7.464587156163206e-06,3.1285487444998595e-06,1.8557386586931429e-06,-4.79328665365283e-06,1.5191449350786947e-06,3
-8.696294202748876e-05,-1.4600296619798635e-06,-7.442668430412472e-06,-4.706005297091608e-06,-2.34990135216243e-06,-9.516542275897816e-06,-3.2994414174049904e-05,7.373193830015823e-06,4.528084341146655e-06,-2.9106688711513413e-07,-2.8190221405682713e-06,1.6564964191519526e-05,3
3.4849675963036174e-05,2.0010220512739728e-05,-8.014102597359828e-07,-1.0205003000325793e-06,2.4703439166324485e-06,-2.8549427350220196e-06,-1.4825454648563561e-05,3.650398149248231e-05,3.4795188837586013e-06,1.73899647327404e-06,1.1766105792963178e-06,3.7202444976714276e-05,3
0.00014530271607574626,2.7681282530084304e-05,6.915310840462586e-06,3.661149279785692e-06,6.624109670059359e-06,4.553307478571844e-06,4.00624879796234e-07,5.502388813801635e-05,-4.1720670576442513e-07,1.6358729217223597e-06,2.8999584773069116e-06,5.161045325499573e-05,3
0.0001495307256848819,8.651682192241174e-06,9.913668100731495e-06,6.179217834555327e-06,5.854208224205946e-06,5.574465814608797e-06,2.990932012250935e-06,4.6737926561242916e-05,-3.4519915609957927e-06,-5.111943076803451e-06,2.596156353723094e-06,5.0974156504301885e-05,3
7.162337914485486e-05,-1.6611527993579702e-05,8.181186733825992e-06,6.214160279642374e-06,3.21985700628854e-06,1.7731196416973076e-06,1.396162434286122e-06,2.367537573815793e-05,-1.8630306940640602e-06,-1.3911737631923698e-05,1.5788279663079575e-06,3.724281024595937e-05,3
2.5424775954955803e-06,-2.5428622873513436e-05,4.633941878519124e-06,4.644925951184526e-06,2.574374511646682e-06,8.940331960072481e-07,4.880153242455864e-06,5.771619161447397e-06,1.4318521952658825e-06,-1.9521677788883814e-05,1.2071124721617748e-06,1.755318576993667e-05,3
-1.7396310649591846e-05,-1.8867320195338005e-05,2.6796550811753857e-06,2.7899332233798385e-06,3.058754811893145e-06,3.364426523115325e-06,7.863662873679216e-06,-5.086242694863535e-06,2.852242942102594e-06,-1.9963723884457658e-05,1.8248953034326235e-06,-2.218976567444997e-06,3
-9.082552726771237e-06,-9.307209532660293e-06,1.966826266970808e-06,8.793861385450737e-07,3.048707199849853e-06,3.383606724052056e-06,8.566467983498476e-07,-2.080801959771078e-05,2.993796142857004e-06,-1.2769641379528797e-05,2.1469998252041142e-06,-1.6330316164041763e-05,3
-8.642921500688045e-07,-4.004978488769559e-06,9.225050033382261e-07,-1.3776879205942721e-06,1.148536385682803e-06,1.6737834219466257e-06,-9.262767569617431e-06,-3.764906161935586e-05,1.051835104810778e-06,-9.718583145109889e-07,2.5731247968998833e-06,-2.2215207041517865e-05,3
-3.3143535562824936e-07,-1.6486772582136618e-06,-8.607041853156607e-08,-2.702533844732395e-06,-1.4879497956998996e-06,5.145272178349797e-07,-1.0923081501289062e-05,-3.675599591845994e-05,-2.2573419068934056e-06,7.412871249647875e-06,2.1569806895787763e-06,-2.403013249073206e-05,3
-3.634681667605969e-06,3.154407979215736e-07,-1.5622517086855237e-06,-3.4119233719235332e-06,-2.4418849929268557e-06,3.9231006218129884e-07,-5.3970627620913785e-06,-2.3798555692813594e-05,-3.436726814059804e-06,1.2085531196412723e-05,-9.138843961748464e-07,-2.5250759977690747e-05,3
-8.839951345373276e-06,-7.814214685626147e-07,-3.751675054990241e-06,-3.747743800911604e-06,-3.0533617886312747e-06,9.712139044696003e-07,2.045541597621411e-06,-2.1962569329801874e-05,-2.7672512662929724e-06,1.6191837585364017e-05,-4.208600714345557e-06,-2.668778605358319e-05,3
-1.324359527643898e-05,-2.990511402706856e-06,-2.9820076666100772e-06,-3.722148196443755e-06,-4.496972721244124e-06,-4.950923148364734e-07,6.4468528364404475e-06,-3.093779488749504e-05,-1.947736479892535e-06,1.7224835175295583e-05,-4.463715954866503e-06,-2.7632684931849582e-05,3
-1.3317009661008384e-05,-7.542897480766745e-07,1.3298694469271867e-06,-4.976036808250431e-06,-5.120072530688527e-06,-3.2348171774843244e-06,3.5165381966026163e-06,-4.091362511157351e-05,-1.1363152825164235e-06,1.845067275330722e-05,-1.6418055981616847e-06,-2.381354024911178e-05,3
-1.0093670584174145e-05,1.4559188641169585e-06,-1.1421453202516286e-06,-5.425007395551963e-06,-4.135005402599999e-06,-4.001506252806598e-06,-2.6171529374121742e-06,-4.73620195528184e-05,-1.7821474644783429e-06,2.5058344054325404e-05,1.0113272973379422e-06,-1.3233773903909292e-05,3
-5.552148577515042e-06,6.2310671382566895e-06,-1.2187830891822429e-05,-3.490025103817549e-06,-2.8909652806070145e-06,-3.854606640013251e-06,-4.854065909095028e-06,-3.3771166205004836e-05,-3.326074358756584e-06,2.8538147161732755e-05,5.327310500648725e-07,-5.392972292160564e-07,3
-1.0546286992316746e-06,2.3110046461157754e-05,-1.5938572347690762e-05,-1.5458912932289763e-06,-2.432497685885196e-06,-4.80504020958649e-06,-1.0954722800674892e-06,8.465910800034017e-06,-1.2086849226713919e-06,2.2326891583503823e-05,-1.3796059105468808e-06,7.124850097117008e-06,3
-2.9405766813266022e-08,3.513871350824513e-05,-6.321141694630452e-06,6.805567508822472e-07,-1.220124443124805e-06,-5.009752303986336e-06,6.232313425913867e-06,5.93878044510024e-05,5.713245853919471e-06,8.493568602560989e-06,-1.7837507196929213e-06,8.514698617088343e-06,3
-3.2009381987296367e-06,2.247145129044485e-05,6.9822244924237885e-06,3.881898608328663e-06,6.118386917219354e-07,-2.0424436209465504e-06,1.2536009804995046e-05,9.250949360224292e-05,1.0595867476029165e-05,-1.247864497303369e-05,-1.5711388984677135e-07,9.438752830740435e-06,3
-9.687957515283127e-06,-2.3274606802377302e-06,1.4767569920710349e-05,5.781160036377146e-06,3.507630018238343e-07,2.3137062041790835e-06,1.507161190982686e-05,9.084258528785492e-05,5.380353727991768e-06,-3.212902182932352e-05,1.957380009673711e-06,1.2754038071597937e-05,3
-1.9378409695256002e-05,-1.9473993288285686e-05,1.2353926477840096e-05,4.851823955042694e-06,-1.6651049168211768e-07,3.932229184962828e-06,1.0975474112512976e-05,5.405303592148938e-05,-7.99981747036831e-06,-3.746651932554462e-05,2.0654490241230007e-06,1.5150676793645316e-05,3
-2.477090743921168e-05,-2.324964057974242e-05,3.730218221877784e-06,2.480430835192204e-06,2.368150855809853e-06,2.424076188401414e-06,1.3028770926670996e-06,5.92821188091566e-06,-1.7433381750028833e-05,-2.8965462551771684e-05,6.28909313897968e-07,1.23050226707245e-05,3
-1.786974545321418e-05,-1.6663449740531823e-05,-2.653138290503864e-06,-2.227446090282129e-07,4.951633104113315e-06,9.138634912777858e-07,-2.5991472450198184e-06,-2.393997264685519e-05,-1.4064541295602065e-05,-1.988463861772895e-05,-4.6932404631038885e-07,5.305064003397696e-06,3
4.5108379885219445e-07,-6.909053452008691e-06,-6.168917556886029e-06,-2.986959320964714e-06,3.835675000420255e-06,4.284263380479224e-07,5.651896403835061e-06,-2.7860639285818802e-05,-1.8925068346306157e-06,-1.824441455361818e-05,-1.5293779477116265e-06,-1.7686250084670205e-07,3
2.4963691922422825e-05,-1.1148502221526368e-07,-8.764990211516168e-06,-3.751712292172546e-06,1.4456325167297233e-06,6.840807429703505e-07,1.666324462586296e-05,-2.525016610841918e-05,9.052787134054546e-06,-1.7440468098171406e-05,-1.1638310760390574e-06,-2.367125728136158e-06,3
4.0120971418048244e-05,2.624323535199809e-06,-9.255187024509722e-06,-2.3962384782865225e-06,9.822430009150728e-07,2.281553079971734e-06,1.862698364161917e-05,-3.3344312092904144e-05,1.4263121219866441e-05,-1.4041015536520285e-05,1.609337576437858e-06,-2.019515171957818e-06,3
3.27112849901308e-05,2.1232384335198006e-06,-6.926173178689759e-06,-1.058534095702549e-08,1.6151353379919384e-06,3.586077648209865e-06,1.1158753159556793e-05,-4.240779525400513e-05,1.3219153581144528e-05,-1.188480249459229e-05,2.736118068626408e-06,-4.040499636674581e-07,3
1.435944375558475e-05,-9.241409450915877e-07,-5.832342162682448e-07,3.843144347612491e-06,2.2713931355830083e-06,2.542307464129565e-06,7.264012505099253e-07,-4.091674960165789e-05,6.943459377212847e-06,-1.0673462331673064e-05,9.574287781008619e-07,8.884637615382981e-07,3
-5.333506672817127e-07,-4.361798121602122e-06,7.278612527883632e-06,6.980132981877915e-06,2.7949386288654344e-06,5.405586160461542e-07,-1.0596482178654024e-05,-2.398997054927197e-05,1.5159298115528548e-06,-1.1145758773814856e-05,-1.9918828684568262e-08,3.378869240732239e-06,3
-1.0584132355955125e-05,-7.731571811881036e-06,1.080828373674567e-05,6.3967564319218305e-06,2.271148850530673e-06,-1.4125661463822186e-06,-2.1193753692260348e-05,1.7847862883684373e-05,6.602542296364353e-08,-6.7171541246331595e-06,-2.4145576017835493e-07,4.573394853358528e-06,3
-1.5348176776722454e-05,-9.448771326073882e-06,9.937707579484605e-06,2.579214282733117e-06,-6.035958217046666e-08,-3.077204817315581e-06,-2.5972037141138995e-05,6.860410091168818e-05,-1.1393607851156907e-06,1.8169851692870223e-05,-1.0792578539849184e-06,1.066205865556532e-06,3
-1.6657649929924827e-05,-4.255342727354628e-06,7.962968613116754e-06,-7.325876786887588e-07,-3.520557896842125e-06,-2.6376261831861047e-06,-2.3336487277606246e-05,9.230851066078503e-05,-3.735461519126413e-06,5.82765854875505e-05,-9.800197669779337e-07,-1.9801932705857775e-06,3
-1.4763065950622177e-05,7.109999367969035e-06,6.476411761259766e-06,-1.5492373368716266e-06,-4.8134678862042446e-06,-1.0184525460310049e-06,-1.8497674743397314e-05,7.601511574196099e-05,-6.408790277311992e-06,8.604520865756942e-05,-1.9594834273639803e-07,-2.5788395233593454e-06,3
-7.262770312235815e-06,1.7359221242296145e-05,4.776413977067266e-06,-2.4666956711768775e-06,-2.863111363549259e-06,-3.4008873852287974e-07,-1.8094800630610837e-05,3.17601828992944e-05,-7.632443388683778e-06,8.302632614387691e-05,2.480486930312146e-07,-4.1789604651974825e-06,3
-1.192513382766866e-06,2.077775575218434e-05,1.379112299601304e-06,-3.879185403724851e-06,-2.1810221890973384e-06,-7.561248581211228e-07,-2.0783741983807993e-05,-2.750797904587261e-05,-6.307826944669973e-06,5.499852713249724e-05,4.3472630166507434e-07,-5.490330646085831e-06,3
-2.983985301683227e-06,1.7218776822019766e-05,-2.6861150726503723e-06,-3.992704271442085e-06,-3.478071628924815e-06,-1.5694524751560574e-06,-2.0432232973748017e-05,-9.259950190993149e-05,-2.2960021385420965e-06,2.1768865939284514e-05,5.2248852218608906e-08,-5.074972975243061e-06,3
-7.636437926859336e-06,9.565705557654264e-06,-5.197500738403419e-06,-3.880737650962982e-06,-2.876812971996842e-06,-1.829536770323615e-07,-1.2930234588906233e-05,-0.0001235415924874787,1.834684635468344e-06,-4.141075112456836e-06,-2.1599531631893075e-07,-3.717733675832122e-06,3
-9.589640322074017e-06,-1.5429351819217674e-06,-5.349943062471476e-06,-4.720595917124384e-06,-4.3790728825720276e-07,2.0816217334969437e-06,2.4530262089863125e-06,-8.170239323415711e-05,2.357438666427157e-06,-2.566826410619309e-05,-4.698664679392392e-07,-4.329126847281131e-07,3
-5.630697136188302e-06,-1.427199122839237e-05,-4.953634048308012e-06,-4.740662379336555e-06,2.1308008080814866e-06,1.7503510905831723e-06,1.9152164434390057e-05,-1.2696259385598465e-05,2.0783926304131607e-06,-4.73444059362996e-05,-1.7254748818999074e-06,3.3863449310538625e-06,3
