emg1,emg2,emg3,emg4,emg5,emg6,emg7,emg8,emg9,emg10,emg11,emg12,label
-4.6796705839815805e-07,-8.401624600212796e-07,-3.4005464736955197e-06,-2.911402541827203e-07,-2.235189514731231e-07,-1.5409777178996132e-07,-3.610768364314631e-07,-1.5256460371345938e-06,-1.1490126071803084e-06,2.8959285407282664e-07,-9.861396696707683e-08,-2.2880180553020765e-07,5
3.361295618729362e-07,-1.3848391912954718e-06,1.1892871559970313e-06,2.865757201127444e-07,-1.07137283782817e-06,4.026524245575392e-07,1.6891779933343734e-06,1.3555885593617597e-05,-2.0758833835251328e-06,-4.340497800967203e-07,2.515936606709146e-06,-1.275429636707024e-06,5
1.535478341314455e-06,-9.615491332823244e-07,6.605527598099956e-06,1.854963206359757e-06,5.138820797073889e-07,5.645582241379464e-07,2.91038135870764e-06,2.4538933047790165e-05,-2.553689820662182e-06,-3.675484205314329e-07,3.062977586267839e-06,-3.378662508146694e-06,5
2.0094866789985868e-06,5.908142199624954e-07,1.2107135400141722e-05,4.172900452444024e-06,1.91174473431287e-06,6.044985411247681e-07,1.9234143463513194e-06,3.182226959113453e-05,-1.111532341295817e-06,-6.218162802538092e-07,2.715778538699264e-06,-2.392229600283812e-06,5
3.999727209390381e-06,1.8660206240348498e-06,1.5368031383560223e-05,5.07418626586607e-06,2.3405825037962015e-06,-2.9665626393928395e-07,4.4182652487147104e-07,3.3565513126199816e-05,9.500308020451127e-07,-3.225491149985006e-07,2.6910172796218423e-06,-1.078243250766875e-06,5
5.3151464128973505e-06,2.167586229730604e-06,1.2993573712173415e-05,2.5468422119709113e-06,3.0796145732300236e-06,-1.6344217382188761e-06,5.579904957391931e-07,2.798806631489147e-05,2.7454584547324536e-06,1.137407848908067e-07,3.7225473054137946e-06,-1.0302298146703803e-06,5
3.7188764315006217e-06,1.0420523361345114e-06,4.298515574860648e-06,-1.0756909705564788e-06,2.6042549026149034e-06,-9.632749321628506e-07,2.3518448998314056e-06,1.4420789792963438e-05,3.3801467522569244e-06,-1.1220482171078306e-06,4.646800796791911e-06,8.738940574310614e-07,5
1.8311717438292542e-06,-1.2881265372332727e-06,-4.814612703380351e-06,-1.809880192411786e-06,-1.7915491515248134e-07,5.182073812335537e-07,5.035420312568709e-06,-7.372079707031047e-06,1.2304216207105655e-06,-1.8361196227943417e-06,1.9593054403649936e-06,2.455043703453363e-06,5
9.79168959908938e-08,-2.672717810672648e-06,-8.239541213414786e-06,9.156566177779266e-09,-2.4450727747885667e-06,1.304434956588879e-07,6.708556427083374e-06,-2.8448433807015723e-05,-1.072919153065854e-06,-1.3429405290406752e-06,-2.9080774400281097e-06,8.094001403198217e-07,5
-9.537163903966003e-07,-1.9448137746009874e-06,-7.845070303890942e-06,1.337447674755439e-06,-1.7230967024297786e-06,-2.667135303136335e-07,6.0294659965555295e-06,-3.5569297720424083e-05,-1.0384050985322109e-06,-1.2559274839555959e-06,-4.359266380947975e-06,-1.9739285919043757e-06,5
-2.0770829260650484e-06,-5.96289907046525e-07,-6.835252297234741e-06,5.567475749139393e-07,-5.506981268033215e-08,7.624225579360053e-07,4.03603277645675e-06,-2.236710759203581e-05,-7.528133814059985e-08,-1.0331520470003993e-07,-1.9043923449807266e-06,-2.4598691146643986e-06,5
-4.151885673030866e-06,-2.105632533822115e-07,-5.025794030049672e-06,-1.290857908059057e-06,-2.7629641241440765e-07,9.416749973390589e-07,1.9604466755214025e-06,5.6771717802535205e-06,4.121185251775614e-07,2.1867080174178747e-06,-7.364016607828688e-08,-1.1125023668877602e-06,5
-4.530795208957928e-06,2.0636372352181635e-08,-1.85316897243925e-06,-1.9874377250096047e-06,-1.958562385606277e-06,-4.536385801979584e-07,1.9488992829996202e-07,3.157566438249601e-05,3.313241405291593e-07,2.7436650651101383e-06,-6.504645793886665e-07,-3.630876462602755e-07,5
-2.6809178784376186e-06,1.0153812823679836e-06,2.9397636538465853e-06,-7.997855514124535e-07,-2.1538196407263665e-06,-1.78873630940694e-06,-8.757230295402799e-07,4.17495831542098e-05,8.11388720578125e-08,7.836641008967917e-07,-4.148172069004845e-07,-1.9894419100261952e-07,5
1.6842261534728854e-06,2.1442637767518835e-06,6.446533027282508e-06,1.353303634436114e-06,3.5485315274587977e-07,-1.2812723114707677e-06,-2.5492328021341152e-06,3.082552643384673e-05,-3.430224901105107e-07,-1.0005059313184126e-06,4.456831275309091e-07,-1.7742233379917644e-07,5
6.166411355048822e-06,1.6750775241081234e-06,5.80221541684214e-06,2.3168287844644525e-06,2.5426531352662912e-06,6.340092016883826e-07,-5.2296653732363135e-06,-3.018758654951536e-07,-7.231928685835855e-07,-6.869043632371997e-07,-1.4059819984841934e-06,1.6409432756838146e-07,5
4.6104672014039035e-06,-6.661578859763544e-07,2.228302761654218e-06,1.2692631441001036e-06,2.9700732348501554e-06,1.4586937449050148e-06,-5.380222933833343e-06,-3.4839464222666136e-05,-8.771917289419619e-07,1.4657828263976409e-07,-2.3517174954364476e-06,1.331231874325869e-06,5
2.110090877887611e-07,-1.1757295701891051e-06,-3.0930428356401108e-06,4.893993484578115e-07,2.4961382787475043e-06,1.470180340799316e-06,-1.5343432130498172e-06,-4.734768520578117e-05,-1.9308273448456437e-06,-4.290059218836667e-07,1.903210745979156e-07,1.724880692931799e-06,5
-3.805469610792503e-07,1.974295630040991e-07,-7.851256634998458e-06,4.706303061531637e-07,4.5138581284425407e-07,1.817227248438882e-06,1.3097675192700275e-06,-2.9463248162678035e-05,-3.1992580311274284e-06,-2.538232425953908e-06,1.7927213672831446e-06,9.404708493380688e-07,5
1.2385105371613285e-06,-6.928691452800881e-07,-1.0989170708493856e-05,-5.352461531801889e-07,-1.7224033350860108e-06,1.5682822083246412e-06,-1.685674922696847e-06,-1.934165741588728e-07,-2.756922347315718e-06,-3.696465527575305e-06,7.221592026694283e-07,7.92569614384744e-07,5
8.822747556656207e-07,-1.7873123807099693e-06,-1.2826465332171123e-05,-2.712008057771229e-06,-1.929533676457869e-06,6.365267745845283e-07,-7.48880788827373e-06,1.4882218532452907e-05,-1.4787340847935474e-06,-2.0069361849650545e-06,-1.52991646890331e-06,7.317818747468586e-07,5
-2.6536244310809845e-06,-3.4521354522828883e-07,-1.0239909684070438e-05,-4.925496680526482e-06,-8.892074819579415e-07,-1.904919146706697e-08,-1.0201253081448074e-05,8.586294511423689e-06,-3.2412139703726035e-07,6.38800527859212e-07,-1.967649882997809e-06,1.9303401788223695e-07,5
-5.590934676908044e-06,1.189770798355449e-06,-7.102110084849952e-06,-5.831579581968699e-06,-1.5795676119296358e-07,-1.2033640855281018e-06,-9.086218902683463e-06,-5.17395704281201e-06,9.50389126599758e-07,2.878751542572522e-06,1.9414811116184868e-07,1.0718365502044486e-06,5
-6.316059544870248e-06,2.4986083381562594e-06,-1.03033724116486e-05,-5.286207755566256e-06,-1.023866169195098e-06,-4.074656914181469e-06,-7.153790246605598e-06,-7.830423679840334e-06,2.4177276620197366e-06,3.5598790912684265e-06,1.2548619460456573e-06,2.4916420432951822e-06,5
-7.172092032488532e-06,3.50800758841333e-06,-1.5885024785035353e-05,-3.2816067260436253e-06,-2.21032723476503e-06,-5.208433836954031e-06,-6.227377485170642e-06,3.4667322976770478e-06,4.031552709562743e-06,1.999405829667094e-06,1.768847617240539e-06,2.076825247469705e-06,5
-5.567999869956362e-06,1.8777163780046211e-06,-1.456410491571124e-05,-7.089922242104236e-08,-1.9751741472908204e-06,-2.825691782798106e-06,-4.297211459625096e-06,1.523397963977678e-05,4.412966778497202e-06,1.3806067636419932e-06,2.7652222838037854e-06,6.420576988179393e-07,5
-2.0250026754730024e-06,-8.27302578944859e-07,2.0231187969710667e-06,2.160873457160924e-06,-1.4865945530761285e-06,-5.82417157067788e-07,8.672532206616802e-07,9.065955918070857e-06,3.2198970608192954e-06,1.337100557591704e-06,1.6527150614196792e-06,-1.3604024049577024e-06,5
-1.0635101652348375e-06,-1.6469291813983758e-06,2.8659231509252833e-05,3.4577890521770822e-06,-1.2502181903700552e-06,6.389442061818846e-07,7.886212103058206e-06,-2.101716202488911e-05,1.1878552639544593e-06,-1.3714071157567079e-06,-4.651947197277685e-07,-3.775114328996418e-06,5
-7.564859179771827e-07,-1.6527829482623082e-06,4.6728949072529886e-05,4.742746647549965e-06,-1.0095524683303623e-06,1.3044678873786109e-06,1.3405179775910865e-05,-5.1358055205414694e-05,-8.296140221968878e-07,-3.606089290360925e-06,-2.035548473356148e-06,-4.139741766763014e-06,5
1.7545497343876786e-06,-2.163691103687748e-06,4.925879802180407e-05,4.401101479532352e-06,-2.2622255271158805e-07,1.9096997938379503e-06,1.5321338226427413e-05,-5.4458146463182666e-05,-4.838908717643094e-07,-1.8630395422285234e-06,-2.6597602279261032e-06,-2.4135942867113043e-06,5
7.167363304106597e-06,-1.9736221343321797e-06,4.330972323999452e-05,3.5667780898372225e-06,2.6885481446297867e-06,3.825769291643808e-06,1.3921331810233204e-05,-2.948858574401574e-05,7.495218785638958e-07,2.4368667482903735e-06,-3.6931394091028816e-07,9.636208784324321e-08,5
1.276719613076402e-05,-1.1199930490431474e-06,3.4893721363854765e-05,4.540224838681245e-06,5.601446929478467e-06,5.72783799634149e-06,1.0101416954973063e-05,1.219705370011223e-05,5.619909949910271e-07,6.455080026277294e-06,2.9978227843752504e-06,3.042306569430443e-06,5
1.4075250758665892e-05,-9.40053403783797e-07,2.079357666297846e-05,5.851315891114391e-06,5.770607604983236e-06,5.8561601457586845e-06,6.421637207529836e-06,4.8373504054881126e-05,3.763054078463202e-07,7.503722195882104e-06,3.341809475796004e-06,3.318724782032981e-06,5
1.3040338776613911e-05,-1.066003731018615e-06,-5.0758358450601945e-06,5.500389999994303e-06,4.450007306722165e-06,3.061249114731624e-06,4.516484237062676e-06,4.9989840047541706e-05,-1.192469455341599e-06,5.532704244141483e-06,8.339209607252266e-07,1.0129467875120737e-07,5
1.0096765183056778e-05,-1.601966791576693e-06,-3.6011643135068704e-05,2.123469313259051e-06,1.9818573633088655e-06,-1.5448742687558995e-06,1.9634415589359556e-06,3.2841200062760134e-05,-3.046141816912939e-06,1.8227536804070612e-06,-2.162301183426826e-06,-2.8314637277686423e-06,5
1.2779729588958608e-06,-2.9214981413916696e-06,-5.811771294742634e-05,-3.981585367201095e-06,-1.2705256030906941e-06,-4.039147928950287e-06,-2.4288595916925335e-06,4.449527553658986e-05,-1.6736295475432307e-06,-2.043624554335698e-06,-3.7050876637313225e-06,-3.2370994266092167e-06,5
-1.1056676177906746e-05,-3.5541455436801007e-06,-6.170103077295967e-05,-8.106550398901647e-06,-3.409066939246966e-06,-3.5369346457598133e-06,-7.168203078394086e-06,7.835485813928302e-05,-1.3029830221129689e-06,-3.625983368544482e-06,-3.2925295368293717e-06,-1.1170399205935304e-06,5
-1.8827749537087556e-05,-1.5964480897139841e-06,-4.5186548810706804e-05,-6.4839372982111105e-06,-3.895931038240303e-06,-2.704090110325022e-06,-8.769546813898218e-06,9.009803964900233e-05,-3.0834604860341873e-06,-4.8006542989788606e-06,-1.9084785774505573e-06,1.1638789264050514e-06,5
-1.554924061086244e-05,3.517314418199497e-06,-1.968239557187369e-05,-1.6945862292998346e-06,-3.4722089714904567e-06,-3.1857092986884247e-06,-5.920004919632862e-06,7.689483280326123e-05,-2.3379096475265835e-06,-6.960496015073777e-06,5.96715065139583e-07,1.2232695915568544e-06,5
-4.798734094352681e-06,8.553625028810873e-06,7.896482194608177e-06,1.31241033734851e-06,-3.0189150444546292e-06,-3.114680973868951e-06,-3.179818431279179e-06,5.2120593359891626e-05,-1.1939043596017593e-06,-7.036345992654803e-06,2.847468683616252e-06,1.6462054303730996e-07,5
2.392509455522367e-06,1.0659670900680936e-05,3.577155240751715e-05,4.0463055286841305e-07,-1.7695637405389494e-06,-1.3933928949792848e-06,-1.602471180802712e-06,2.2211948831795678e-06,-1.5401976347961436e-06,-6.498597700242445e-06,2.102414643581828e-06,-4.665355535175918e-07,5
3.0212124718542683e-06,1.0938705579253045e-05,3.831628943434205e-05,-2.741227478417044e-06,-4.512540136004956e-07,-2.0389162832543073e-07,1.6614924039419552e-06,-7.691042646549426e-05,-8.854796311424463e-07,-6.944390024575214e-06,-1.1317024780579488e-07,-6.902802532601624e-07,5
1.8100255744502849e-06,7.908216006175301e-06,-2.6763440973900048e-06,-4.6856732112580115e-06,-9.68735976775913e-07,3.01338884259379e-07,3.936000994636327e-06,-0.0001534391778992258,-3.7606001151524197e-07,-6.028067813597052e-06,-4.947745508956934e-07,-5.589612125925202e-07,5
9.032831665087152e-07,-4.2504522971936604e-07,-5.048080094849374e-05,-3.533975596076612e-06,-6.341040830186954e-07,1.7161788223098159e-06,1.2916239595269564e-06,-0.00017448666692656127,-7.289996590496766e-07,-4.731254175744593e-06,1.1904599326705886e-06,1.5080478359756723e-06,5
7.053062555954732e-07,-9.135732287993191e-06,-5.844885576266285e-05,2.2064143328791063e-07,1.6895278887344244e-06,3.696593007395179e-06,-3.550449646513762e-06,-0.00011923144101887776,8.326152010179271e-07,-2.939937896015553e-06,2.312541430611125e-06,4.406218894406711e-06,5
1.3717120993113486e-06,-1.2045879305189866e-05,-2.5352447969712988e-05,3.733289320781131e-06,3.110684581743038e-06,4.3014339194644645e-06,-7.286159372303718e-06,-4.397906730797304e-05,4.852658510473695e-06,1.5082222965252492e-06,1.3891693200241051e-06,3.0761994855125642e-06,5
1.3436637412802824e-06,-9.325004537663103e-06,1.8816217785488375e-05,3.658027863167086e-06,3.337387989257782e-06,2.4536495878127032e-06,-1.1664676930736934e-05,-1.4152658449666853e-05,6.95250151118371e-06,6.600432091339631e-06,6.726971717100322e-09,-4.913330304342435e-07,5
-1.2230281960482603e-07,-4.963536084204146e-06,5.064670422720156e-05,9.184622090851157e-07,2.9344154530811736e-06,-7.16285040212203e-07,-1.5335665573664885e-05,-2.1600938085447405e-05,3.453907242223494e-06,9.962409486398342e-06,-1.0596439483941695e-06,-5.14026156825385e-07,5
-2.3077195467370977e-06,-1.7653624607806567e-06,6.617680844131922e-05,-9.003788443052302e-07,2.115649071964453e-06,-4.07449022018222e-06,-1.4119916323526855e-05,-1.5104617984973477e-05,-1.3852513627105948e-06,1.1525931373691804e-05,-1.9665725328382736e-06,6.622366491869987e-07,5
-3.676446466603665e-06,1.4492474041745706e-07,6.0043595649361284e-05,-9.935619010571308e-07,6.920157428130517e-07,-5.727352571599782e-06,-8.264627176271208e-06,2.4483736483573345e-05,-2.2907944350335543e-06,1.0379608414356204e-05,-1.8412774315296489e-06,-9.461485348585816e-08,5
-2.509228850025723e-06,2.0116405406160623e-06,2.8892439196060678e-05,-1.2711419060779882e-06,-1.959443236506678e-06,-3.924363083918017e-06,2.7973483641165536e-07,6.357295598449624e-05,-1.6390218433479658e-06,5.621379413995323e-06,-7.206143533319965e-07,-1.2642791418833236e-06,5
4.2740589591070836e-07,3.654805348854421e-06,-4.204089696222827e-06,-1.6497811671475934e-06,-2.887314051758533e-06,-4.5560673943167617e-07,8.567520718530304e-06,7.308367885599676e-05,-2.353929362578572e-06,8.222236441724559e-07,5.964196723285854e-07,-1.7979395521737945e-06,5
3.840885236709404e-06,3.7819769219968803e-06,-1.5675839493122053e-05,3.1906939522738333e-07,-1.0855542145245819e-06,2.7803459854562095e-06,1.3377265397355233e-05,6.799387574397479e-05,-1.4183173981855513e-06,-8.869209371533786e-09,9.743299000782713e-07,-1.5636833744397818e-06,5
7.331697312319092e-06,2.872449393590783e-06,-9.20276736669572e-06,3.028103654840383e-06,-4.5370565230408277e-07,4.2225388063905925e-06,1.4527117887031891e-05,6.713495359249524e-05,2.7130942558764414e-06,1.368464022588816e-06,-6.618116713414532e-07,-1.033356300445995e-06,5
7.825680454043806e-06,2.2428968261341745e-06,-4.368147748378869e-07,3.7219799115127685e-06,-1.8726939460233363e-06,2.8046646332357377e-06,1.3260864328701501e-05,6.61645178096269e-05,5.448961871883674e-06,2.394943395079862e-06,-1.757485739135297e-06,-4.229759076251481e-07,5
2.415592150963154e-06,1.0365308452913013e-06,-1.1812739089552616e-06,3.5828287109276938e-06,-3.551385152322544e-06,1.3969044521553928e-06,1.0908999785616918e-05,6.247562536053335e-05,4.177787080114248e-06,1.1904838191807362e-06,-2.909209242772105e-07,2.9445487544244046e-07,5
-4.870488532180362e-06,-2.2427629327722066e-06,-1.1691362138549381e-05,2.71536019149299e-06,-3.295273904118253e-06,1.5775861173034786e-06,8.094434760728031e-06,5.981134350721129e-05,9.156230043110898e-07,-2.665179041852941e-06,4.98523335215568e-07,2.6957620540168294e-07,5
-7.5176700366920625e-06,-5.566256904491695e-06,-2.1552063406333904e-05,3.328186780468155e-07,1.4361113795385698e-07,1.44595957154411e-06,5.348560954241023e-06,4.851219400292761e-05,-1.5113878701466467e-06,-3.432327544630786e-06,-8.970210678954784e-08,3.572771474739177e-07,5
-5.752709839210986e-06,-4.933877066254518e-06,-2.361618496505903e-05,-2.2756671408544922e-06,2.9347458689805897e-06,5.3463410497921686e-08,3.031838061514384e-06,1.651547207279313e-05,-1.2831602597121593e-06,-7.978492633384535e-09,4.040040291932934e-07,5.84782375685915e-07,5
-3.354798622696538e-06,-1.1223244818281013e-06,-2.0896852626361154e-05,-2.981310669025684e-06,1.697368017376015e-06,-1.588028878155915e-06,-8.816040847504836e-07,-3.093759706530812e-05,-3.6392341330734795e-07,9.044119361451451e-08,1.0779379624260607e-06,-5.743584425679421e-07,5
-5.089589059067709e-07,1.1737702280276352e-07,-1.751594969893417e-05,-2.048752124047872e-06,-7.456653158756491e-07,-1.0711298691351266e-06,-5.219254956728509e-06,-7.232836023682636e-05,-7.466189361302566e-07,-3.603975606519129e-06,4.879905349197925e-07,-1.3745303534252233e-06,5
3.559958228541181e-06,-2.3539666740327915e-06,-1.1900647076858165e-05,-2.215389658110954e-06,-2.586000704496499e-07,7.458112672858978e-07,-5.041262445543265e-06,-8.630039495553911e-05,-1.4515446491723935e-06,-5.947662857678921e-06,-4.779428546579277e-07,-9.864274079782818e-07,5
6.133007004247953e-06,-2.78884481636812e-06,-3.3466398539428086e-06,-2.3898515374405025e-06,2.287695358381413e-06,1.756668018274208e-07,-1.6289683710113665e-06,-7.551350988502107e-05,-1.7512881825649894e-06,-6.472902602903455e-06,1.5876923403627383e-07,-3.55179849565968e-07,5
5.609684593500069e-06,6.247010700263138e-07,5.88158055383648e-06,-4.983018796041476e-07,3.0884247347057983e-06,-1.6543956134298102e-06,1.6214805466617737e-07,-5.637507778062893e-05,-2.0197149706398205e-06,-6.855715551738212e-06,2.3571099503234507e-06,1.1715188511177202e-06,5
4.18235535018012e-06,4.771470060441975e-06,1.3655293572569904e-05,1.9221211272341105e-06,3.1511084516613803e-06,-1.93524657071985e-06,-1.062075497943977e-06,-3.591551129593382e-05,-4.34041907925511e-06,-8.136554805621825e-06,2.7014364707680052e-06,1.811285397950776e-06,5
2.2200031262509518e-06,9.41114822916171e-06,1.636802464374256e-05,3.3255476762488506e-06,4.13576528141549e-06,-1.2697543186943288e-06,-4.4571019842750295e-06,-1.4299793796365727e-05,-7.996636063421344e-06,-7.331875784632069e-06,2.603678414648381e-07,2.6756780513190726e-07,5
-8.235884080207956e-08,1.3019948391752355e-05,1.2224660438673475e-05,2.4279522920143526e-06,3.217546036182535e-06,-2.3180120859333198e-07,-7.062248870839244e-06,4.2824675142969e-06,-7.682042599477325e-06,-1.4549018779322137e-06,-1.474705821092427e-06,-1.0510869858402631e-06,5
-2.0532339334487676e-06,1.1226362258505327e-05,3.142977252119154e-06,5.985052221218783e-07,4.6049250749135355e-07,7.644444618582856e-07,-8.400200113606622e-06,-4.188889963355189e-08,-2.8652619052855264e-06,5.018123076811073e-06,-1.0004028984334205e-06,-1.1446610949825467e-06,5
-4.625519631506417e-06,4.675480423541856e-06,-5.823637929492668e-06,6.099741801558715e-07,-1.7346789496795371e-06,9.230423391863629e-07,-1.0775859562358295e-05,-3.103678348111533e-05,1.218609271316395e-06,7.694048634622618e-06,-6.281388136398317e-07,-5.528462882549529e-07,5
-5.696789804098613e-06,-2.84192680534901e-06,-7.17008194845315e-06,6.353100993581132e-07,-3.0558780558570283e-06,5.187623384836297e-07,-1.0689815035205029e-05,-4.3197168651446974e-05,3.3227091455476534e-06,6.5815345629860355e-06,-1.2662253139411894e-06,-6.292417989145443e-08,5
-4.935850505378432e-06,-1.023057965454452e-05,-2.448849227242263e-06,-7.904812993523071e-07,-3.0051885339708804e-06,-4.1369076784809065e-07,-5.244081604468802e-06,-4.6038301836542565e-06,6.445768837948916e-06,3.934895732165169e-06,-8.285048323183113e-07,8.409951271466319e-09,5
-4.036692953827937e-06,-1.5455661581200407e-05,3.9330293706649894e-07,-1.023786448438749e-06,-1.6205762443308907e-06,-1.1642978026527665e-06,1.3399254152343e-06,5.012299271699541e-05,9.051060896994246e-06,3.0696360861382066e-06,4.2012331729661283e-07,3.135831157630634e-07,5
-1.3107653519578772e-06,-1.3175171776475846e-05,3.1071138321448736e-06,5.73239286926587e-07,-9.703890765175376e-07,-1.4994855917696911e-06,6.287764892884212e-06,7.676447357820703e-05,7.690571793223735e-06,3.339707897257552e-06,-6.530564439799519e-07,5.066061289911401e-07,5
5.864541133860138e-07,-4.337560603406334e-06,8.692660947142692e-06,7.031543967709366e-07,-2.398511589968178e-06,-2.1722375467805105e-06,8.911638608399812e-06,7.645322633224657e-05,3.965430335217948e-06,1.886965312967807e-06,-2.5307599416104412e-06,7.938931980437518e-07,5
-3.9631827187511656e-07,2.5668931918309744e-06,1.3550577622969516e-05,-1.3774550186830512e-06,-3.7056486299085282e-06,-1.4741935234803152e-06,8.322337589784956e-06,6.938285647050798e-05,2.5465795874009274e-07,-5.75194614828679e-07,-1.5139028849073496e-06,9.408431763214501e-07,5
1.4685101974174983e-07,4.275555936079942e-06,1.685682047645638e-05,-3.3153603308152747e-06,-3.24162571752075e-06,1.1885956035340279e-07,6.06198933705279e-06,5.944771483243262e-05,-1.9895178173191234e-06,-5.824541508910175e-07,3.665463604408534e-07,5.511505751693606e-07,5
1.2202543623094491e-06,2.629611553587143e-06,1.7389694732583354e-05,-4.394136724848788e-06,-2.369397160735549e-06,3.133099841506246e-07,4.671634509542207e-06,3.602565260817769e-05,-1.0657350338526563e-06,1.4687543779574083e-06,9.304276627711367e-07,1.8967019198330644e-06,5
6.568715622723109e-07,3.125020021196322e-08,1.1310868933741048e-05,-3.5568148846958657e-06,-5.689081231228909e-07,7.227186243031811e-07,5.439350147198382e-06,-4.197887384149833e-06,7.707293699033739e-07,6.405101601442703e-07,1.3062190031302697e-06,3.950756237589675e-06,5
2.7968945020194835e-06,8.91978353468455e-08,-8.317844159499793e-07,-1.2977225470778553e-06,2.403280211609009e-06,1.7155972912908035e-06,5.02940023125129e-06,-4.160581675274347e-05,3.118125924942029e-07,-2.3003749397008883e-06,2.0316811749566124e-06,3.9068198720910295e-06,5
7.098025883843204e-06,2.0441307074028876e-06,-1.4230473633666806e-05,-1.5510689061061569e-09,3.1185341523032946e-06,1.8913065726637593e-06,6.80534797502976e-08,-5.519577631432468e-05,-3.332965496491179e-07,-3.1719390253874283e-06,2.4574321399891585e-06,2.3141245981185152e-06,5
8.47600566302469e-06,2.621773337278369e-06,-2.031293981014502e-05,1.4390537550205706e-06,6.088601088472631e-07,1.210498114683622e-06,-4.699072403469186e-06,-4.32885304434116e-05,-3.100319631239292e-07,-3.421448816145645e-06,6.808714991990232e-07,-2.2084791737825806e-07,5
6.503504026624396e-06,3.0762065472364094e-06,-1.5885690573050768e-05,2.721727958584084e-06,-1.6791060245599085e-06,-4.967822394170421e-07,-4.842115507488796e-06,-2.348297582436359e-05,-2.6073967668370944e-06,-4.038473387963701e-06,-1.6341747534520545e-06,-1.3635775881131026e-06,5
1.8988396632988725e-06,4.83332296652056e-06,-1.0537653587750759e-05,1.544151118784368e-06,-1.8871359191370538e-06,-1.2900889906249594e-06,-2.004015843878001e-06,-2.137631433503222e-05,-5.056958877871099e-06,-3.93885049581221e-06,-1.327452968661909e-06,-4.785089340783317e-07,5
-3.003748223663951e-06,4.556243230459747e-06,-1.1163229136433128e-05,-6.248788648209034e-07,-5.854056577855463e-07,7.71150894965195e-07,1.2157281163771526e-06,-4.2289154527554314e-05,-4.3445183052051746e-06,-2.991717898429395e-06,-7.153350407197225e-07,-1.0841433809689995e-06,5
-4.23063708540914e-06,6.801822859426996e-07,-1.3759447127714224e-05,-1.414455370219317e-06,1.8229946712046108e-06,3.0126742123802285e-06,1.7683677548036153e-06,-7.734051916452612e-05,-2.1087460579169393e-06,1.3462722912466444e-06,-4.1826803401412244e-07,-3.2585027166943027e-06,5
-3.6350174294240263e-06,-2.5907448911377584e-06,-1.2385756710999024e-05,2.8476896134558348e-08,3.958952978774405e-06,3.4011450404959126e-06,-8.143923707521149e-07,-9.856513937523667e-05,1.4484757257304934e-06,7.748922245750994e-06,7.20280462310725e-07,-5.497095660159966e-06,5
-3.1925519171517986e-06,-2.9492658964573053e-06,-6.084388367226206e-06,2.9001211587757084e-06,4.778838718486937e-06,3.358599459980016e-06,-2.3579139646800423e-06,-5.5871384947409914e-05,6.318956999046876e-06,9.585283887296541e-06,8.353920433379234e-07,-6.898726844131907e-06,5
-9.294499452550939e-07,-1.3813668499357109e-06,1.816010391473394e-06,4.894354341957924e-06,4.551730748983807e-06,2.3414333390749705e-06,-1.1539223556489498e-06,3.982679769046086e-05,7.920901202134923e-06,6.66556397904968e-06,6.800237380587907e-07,-5.938376377754813e-06,5
-3.0845336262164437e-07,5.47689967554443e-07,8.324660625280497e-06,4.777751089498031e-06,3.5990224846939233e-06,1.9454534997254403e-07,-4.0421442291309166e-08,0.00012015497957568576,2.875558248382392e-06,3.727828059238978e-06,6.307495269127844e-07,-3.6474481955122377e-06,5
-4.520658571240173e-06,-3.954352941724959e-07,1.189387222066821e-05,3.945553454695361e-06,2.8575105494206016e-06,-8.369182295774988e-07,-1.2559888961574087e-07,0.00016085021380577672,-4.1918337772809975e-06,2.83879481107015e-06,-7.877543805452756e-07,-1.5352758363600965e-06,5
-7.366945491866561e-06,-3.890834110929171e-06,1.193720086392263e-05,3.5329242368055147e-06,1.8853230210192837e-06,-1.3676582466014379e-06,-6.283825519885406e-07,0.00016546459936508113,-6.45982368832641e-06,2.293041887769924e-06,-9.119574430973675e-07,4.120505023369121e-07,5
-5.555079712375386e-06,-6.298107216784237e-06,8.340974630601429e-06,1.7786561559698598e-06,1.015154162764346e-06,-1.9914076483652735e-06,-1.5991843275636342e-06,0.00010454895131599914,-5.1971072158745905e-06,-1.2197562214027939e-06,1.052396229273882e-06,1.5027669465193532e-06,5
-2.878028368840122e-06,-6.986423696575499e-06,7.315797235016236e-06,-1.5223877576947635e-06,1.5632029610755231e-06,-2.619009477603723e-06,-2.466610563536143e-06,-2.5195471174646617e-05,-4.053378190583879e-06,-5.965340650170813e-06,1.1622454381174368e-06,9.368740127744668e-07,5
-7.33569871687576e-07,-6.293186133945066e-06,1.3461373768483468e-05,-5.028231105500933e-06,-4.784674914937254e-07,-4.4768410957013125e-06,-2.8016178628559084e-06,-0.00013846236764107012,-2.8687406293890753e-06,-8.196777392104038e-06,-5.130801920313812e-07,2.0278052581577517e-07,5
1.5042660373028449e-06,-4.5664318102615485e-06,1.3195215669186164e-05,-8.847759796503549e-06,-6.333769681953205e-06,-5.651012025578484e-06,-2.395487527805704e-06,-0.00015938965328280157,-2.1114083250407286e-06,-8.55983017626844e-06,-7.269188802692975e-07,1.751972760598413e-06,5
4.458672616019253e-06,-2.0107492275859486e-06,3.7789059079168165e-06,-1.0126892555027644e-05,-9.366097763939103e-06,-4.090398409476637e-06,-1.7881343285858468e-06,-0.00010946954881377885,-1.2772497907771773e-06,-7.646718194501979e-06,-4.799754243652017e-07,3.9880123198670704e-06,5
7.1513956670120765e-06,2.9147275139175857e-06,2.3658151535769833e-06,-6.067282310579358e-06,-7.47022416837857e-06,-1.2501889532354882e-06,-1.4785828020292394e-06,-4.3536287785255504e-05,7.33359267156628e-07,-5.5173932046444856e-06,-1.011304026918811e-06,3.4871966738514557e-06,5
6.943564893566517e-06,9.328096695369708e-06,4.657891347892473e-06,1.4360806474516293e-07,-4.080194344145431e-06,2.3461134408617434e-07,7.810445278111639e-07,4.0651409432529954e-06,2.418082773771714e-06,-2.7910425160999233e-06,1.4285825190320606e-07,2.3056981744144144e-06,5
4.533555383660871e-06,1.4352609988779152e-05,-1.3988907984649543e-06,4.950486379840319e-06,-8.285420821598743e-07,-4.920472807864656e-07,2.9620533802800882e-06,2.28511447391616e-05,1.7359191808312725e-06,4.362376685806452e-07,1.4987470771829938e-06,4.3841489905127126e-06,5
2.6702560433125357e-06,1.6805600382399902e-05,-7.075592085279608e-06,7.881389378119186e-06,1.166478230622177e-06,-1.4632787901895236e-06,1.0812181072001988e-06,2.6829013223746357e-05,-8.181691271641404e-07,2.674278020598767e-06,1.8565271205885186e-07,8.32236230213225e-06,5
2.3813303272067747e-06,1.5955284502862694e-05,-6.352658874222272e-06,8.557676683259319e-06,6.821894287737177e-07,-8.764266542936856e-07,-2.2010115661052444e-07,3.17343440948067e-05,-1.1111196877430279e-06,3.7608433979650427e-06,-1.0342631604175559e-06,1.0177002377636976e-05,5
1.9940398872819377e-06,1.0168483033571415e-05,-5.745369093486772e-06,7.40340754960136e-06,-4.665228266467088e-07,2.530587067613772e-06,2.239643440742004e-06,4.040836167681613e-05,1.386345740519643e-06,4.309344985092678e-06,-1.6067068597506652e-06,9.0840056013905e-06,5
-9.82211328684296e-07,-2.582306447134869e-06,-9.140906692839788e-06,6.395808623024096e-06,2.6925670261242623e-08,6.280885566591637e-06,3.5123875789563833e-06,4.794781304527384e-05,3.602159355881408e-06,2.8062781543725783e-06,-2.7719300590940964e-06,7.1506242120985836e-06,5
-5.263076362665673e-06,-1.7033542839866866e-05,-1.3120439626479541e-05,6.440336541867288e-06,7.808166139479808e-07,6.08309101255117e-06,1.8642257944789061e-06,4.911084519231531e-05,5.649669660440624e-06,1.1312499775652325e-06,-2.340353779363144e-06,3.726781487899088e-06,5
-6.232049068018039e-06,-2.1499500508606998e-05,-1.247298315513952e-05,5.656388866223781e-06,1.557968646609286e-06,4.013871377508837e-06,9.2033942738639e-07,4.254280212520118e-05,7.017344099553087e-06,2.7945635783365233e-06,-4.5719801413517083e-07,-3.636056316626781e-06,5
-3.3763130016977737e-06,-1.5027409851585191e-05,-7.4086718177234945e-06,-1.309006276556043e-06,3.749211272267882e-06,2.0305039472974258e-06,2.0598572050277764e-06,3.0852339955428e-05,7.500681078267587e-06,5.3769384388388e-06,9.387233744863997e-07,-1.142031237911601e-05,5
-1.5298915079128704e-06,-6.67598966019299e-06,-3.3968521353725405e-06,-1.5839720349643693e-05,4.153287386013266e-06,-3.272183022150616e-08,2.9333045627858197e-06,1.6327603567091358e-05,9.221167180358238e-06,4.6828308996450815e-06,1.6133911203869575e-06,-1.553887099910585e-05,5
-7.765355628992659e-07,-1.5496502459820216e-06,-3.027668019921861e-06,-2.7035823656238592e-05,1.2785534982464034e-06,-2.2112742766917284e-07,2.6390118860636026e-06,-3.976525997371088e-06,1.0803965049352742e-05,1.2268948696016915e-06,2.0621250538037274e-06,-1.6782681484781258e-05,5
1.9097337658309475e-06,5.605096261962296e-07,-3.065024594987716e-06,-2.4881075168061626e-05,-1.4565189592410307e-07,3.778979135040449e-07,2.6501997749629565e-06,-3.0926866977804945e-05,7.174774364533309e-06,-8.129100160042724e-07,2.439283416399031e-06,-1.442191253556287e-05,5
3.999956372836006e-06,2.4960801589496742e-06,-7.989624173588182e-07,-1.3595432825989934e-05,9.586526072237066e-07,1.8340291610941136e-08,2.335365119844357e-06,-5.656749903048564e-05,-2.0221521106201416e-06,-1.9943529287403536e-07,2.349816943397267e-06,-7.877425210270729e-06,5
2.162126298640216e-06,5.202009393490224e-06,3.3588033879094877e-06,-1.7703145508617e-06,7.938244338910355e-07,-3.138978893419856e-07,7.017254382606456e-07,-6.880236393266608e-05,-9.650104878082761e-06,-1.4018547060339289e-06,2.2372310628024495e-06,-5.496988264437087e-07,5
-2.5495360782948176e-06,5.877220493747711e-06,7.367704017592193e-06,7.020104892023164e-06,-4.471352617907142e-07,9.762092342466622e-09,-9.786937368698357e-07,-6.363709875012453e-05,-1.2771633469403228e-05,-4.581686418024482e-06,1.790907470110463e-06,4.196663411340198e-06,5
-5.362513245297788e-06,4.434033508328719e-06,9.652908199292885e-06,1.1300423940359712e-05,-2.632585426576766e-07,6.561111318189056e-07,-2.502943343215089e-06,-4.8435737877779846e-05,-1.2656515864720102e-05,-4.4698177124826875e-06,1.8743270695630989e-07,5.244227573094102e-06,5
-4.2858771163809085e-06,3.5758566306196185e-06,1.1153325532760456e-05,1.1438751759571504e-05,5.479160447640818e-07,-2.894361858694211e-07,-5.15001582851352e-06,-2.729467060415419e-05,-7.991990139344103e-06,-1.7095798345769345e-06,-1.5742325426663045e-06,3.4299500408348596e-06,5
-2.2683245634486206e-06,3.83273619287653e-06,1.1292977576633654e-05,1.17729246519633e-05,4.391721163672043e-07,-3.3519793927737795e-06,-8.54113393322459e-06,-1.058405106134577e-06,-2.7466503574095588e-06,6.032094472402709e-07,-2.329525996381441e-06,1.8679429484703363e-06,5
5.311700082651263e-09,3.0341308099901143e-06,1.001586627970516e-05,1.4254042742557514e-05,-6.647278163711436e-07,-5.202974004537694e-06,-1.0268982762929205e-05,2.4583168611724834e-05,-1.5702927726811962e-06,1.947118924576395e-06,-2.4462162705441686e-06,4.094488007356742e-06,5
2.6004828278115884e-06,-3.280923737629651e-07,9.927347147466794e-06,1.500722248066324e-05,-9.786657250296236e-07,-4.012677264905739e-06,-8.25763331416768e-06,4.2981896104461e-05,-3.3297603323542414e-06,1.726192168784442e-06,-2.488767736666558e-06,8.183467798316456e-06,5
5.118265947404663e-06,-2.8448838325662194e-06,8.495265641744982e-06,1.1421735885130018e-05,7.272914270487965e-07,-1.986316928336996e-06,-2.104423165697163e-06,4.8326216936838804e-05,-8.031699487890082e-06,6.260793538876061e-07,-8.012447439055543e-07,8.145328758668227e-06,5
7.744463317501161e-06,-1.8483192722693791e-06,3.3743277822074238e-06,5.5232689925952756e-06,1.758787207573274e-06,-6.778134430200562e-07,4.998225732257142e-06,4.107543019415814e-05,-1.4354105032518964e-05,-1.6437266498210854e-06,1.998838695691531e-06,3.837387229445394e-06,5
7.462217100789911e-06,-5.544481448909123e-07,-1.91489006351414e-06,8.370765663323659e-07,1.1141904745376815e-06,9.817421526035307e-07,8.508513026623639e-06,2.8642878783573503e-05,-1.8774901577924703e-05,-4.592391444883926e-06,1.8048518506472603e-06,6.429012405311465e-07,5
3.2001276154487203e-06,-6.424447157805539e-07,-6.184725114773481e-06,-2.8785850067257203e-06,3.876186447661597e-07,1.9797504963602512e-06,9.047913994806274e-06,1.6243420387788105e-05,-1.790329396696463e-05,-4.449376002359106e-06,-3.81895149294794e-07,5.618178484904409e-07,5
-1.6048149100240396e-06,-8.763503985263821e-07,-8.868968356986005e-06,-7.657575728816748e-06,-9.570014636065203e-07,-1.4273179223062002e-07,7.631635110980473e-06,6.371195931221214e-06,-9.651054616934152e-06,-7.535829874889562e-07,-8.237419172071523e-07,7.907341269754563e-07,5
-4.6419079218060186e-06,-1.0283444997663748e-06,-8.815700951345566e-06,-1.044652386651412e-05,-2.5070898406463917e-06,-1.7385690428050723e-06,2.3811650149194192e-06,3.5667629000806595e-07,1.4482693408192536e-06,2.892676768186678e-06,5.978746611663363e-08,-7.06997943708314e-07,5
-4.762947850974225e-06,-1.2477256573934567e-06,-9.015184504699699e-06,-8.710639285361816e-06,-3.35790938294476e-06,9.139739360740121e-07,-4.092521823834935e-06,-2.454258499288649e-06,1.2051135211216616e-05,3.2633277388314397e-06,5.773217636944921e-07,-2.913018518149511e-06,5
-2.757260250808508e-06,-1.267379211872764e-06,-9.961111544358092e-06,-4.508939702125281e-06,-3.1466423351909598e-06,3.2726505398840515e-06,-6.267393320836059e-06,-3.657705699139631e-06,2.5364697864890628e-05,2.0899877573177795e-06,2.1677660510498643e-07,-3.837446581315604e-06,5
-1.7083988500010424e-06,1.2098661168315686e-08,-8.672279462135383e-06,2.4051199817566836e-07,-1.002623315031352e-06,2.783649750642998e-06,-2.92278062157455e-06,-4.852999521932881e-06,3.943191867114313e-05,2.6780465005016478e-06,-8.099325840717586e-07,-2.6400204367514814e-06,5
-1.9039423837455883e-06,1.317455829534489e-06,-5.557327573247564e-06,3.8730928803973845e-06,6.102519525803907e-07,1.4390608368401365e-06,1.6895336418736917e-06,-6.6811969834978346e-06,4.477562240208922e-05,2.55534514662257e-06,-1.5252999369894935e-06,-3.0723586669038016e-07,5
-1.4051999841449852e-06,7.8974814959212e-08,-3.1368887901942833e-06,5.362378400750167e-06,8.773322675715556e-09,-2.844752053605133e-07,3.2571104567396837e-06,-9.269041699015652e-06,3.71736051859202e-05,1.0889982131887455e-06,-1.0621791777577467e-06,2.0891489849929706e-06,5
-1.1541162960447118e-06,-1.503595862213362e-06,-2.028749393736302e-06,5.333759195421696e-06,-9.78749966257533e-08,-3.8694978228242705e-08,2.16653747205627e-06,-1.2228321005891372e-05,2.5047830070893798e-05,1.1573937910121752e-06,-2.723280261818173e-07,2.846384441098816e-06,5
-2.6027988146849824e-06,-8.508711988887869e-07,-2.87690495529876e-07,4.946665913954112e-06,1.0373908316282095e-06,1.7154668544379622e-06,7.364100764892118e-07,-1.531272737318308e-05,1.680988537901195e-05,1.0971519190495235e-06,-5.644559738660447e-07,1.1310432658598435e-07,5
-3.37590148095838e-06,-3.3597222256740564e-07,1.214642562069333e-06,2.04374938057859e-06,1.6933479425666127e-06,1.1613260951054578e-06,2.194879662505868e-07,-1.852752462645005e-05,1.3088891538993158e-05,-6.877618808987315e-07,-8.421838469984496e-07,-3.0433742327617664e-06,5
-1.6771230664529645e-06,-1.0973856090856042e-06,4.80707632508299e-07,-9.310269958695772e-06,1.4472070955779972e-06,-2.750635356776001e-08,-8.981280015649741e-08,-2.0216326730146882e-05,1.2643666328232829e-05,-2.2456332995740536e-06,9.59489135079476e-07,-2.646850025459225e-06,5
7.957120552281802e-07,-6.531714692670649e-07,1.4200456301335014e-06,-2.5746980898693085e-05,1.152945544001585e-06,-3.1168896181565895e-07,-1.3285350632568097e-06,-1.9621114651513287e-05,1.98626423907593e-06,-2.1595936579000316e-06,3.012989510284312e-06,-6.115560953753079e-07,5
2.73569426987745e-06,8.870513588856571e-07,5.784145802642967e-06,-3.2219792929961014e-05,3.166490809122206e-07,-7.207602187300779e-07,-2.6150464381603205e-06,-1.8147397799468873e-05,-3.407184577992177e-05,-1.0937035144025482e-06,2.125417040851511e-06,-4.109140809172375e-08,5
4.6682256835038556e-06,2.2082798914969776e-06,9.299298623321399e-06,-2.36066217345551e-05,-1.7939116476872485e-06,-8.249847770239153e-07,-3.5821826297610915e-06,-1.579441556460353e-05,-7.878215826611697e-05,-9.82700623828671e-07,5.166208692826564e-07,-9.355040999426958e-07,5
6.889560327900224e-06,2.866561634094951e-06,9.526395113039148e-06,-1.058945387785949e-05,-2.7238680058099877e-06,-8.526110057816413e-07,-4.298191080188591e-06,-9.325932382783617e-06,-0.00010152854230847458,-2.180533316733764e-06,7.420025590896163e-07,-1.5649134290749533e-06,5
6.839854525457875e-06,1.9521173571210762e-06,6.7808841634879045e-06,1.4720713967087805e-06,-1.325594636819821e-06,-5.30653302799492e-07,-3.8569417989607265e-06,3.98491655760224e-06,-9.145428319216232e-05,-2.3284803239778056e-06,7.150464208732684e-07,-6.927352877851917e-07,5
3.565909755812331e-06,1.168151369288801e-06,3.120326913246991e-06,1.418039839368194e-05,4.884560519790952e-09,-4.748934899093397e-07,-2.1612058500643605e-06,1.9890133598692074e-05,-5.5188572415380606e-05,-4.505504226316908e-07,2.5723606600314833e-07,4.1733402819580923e-07,5
1.510125457958083e-07,1.3425912656163537e-06,5.768899593674533e-07,2.2132791571319242e-05,8.014001213486068e-07,-1.9817184074173657e-06,6.352285618792085e-07,3.1178818307882534e-05,-8.307204839448418e-06,6.949597076682499e-07,9.849061801501763e-08,7.232803264604942e-07,5
-2.9722572708439333e-06,1.3397216691796362e-06,-1.1774780673495696e-06,2.3067412028191223e-05,2.2974594115866362e-06,-2.896286787343553e-06,2.2502548665449597e-06,3.587529377913496e-05,3.402807688422008e-05,1.0831905961847956e-07,-1.1016711896916314e-06,9.441686448364463e-07,5
-4.965637545077393e-06,9.463160548780901e-07,-1.4212298771358826e-06,2.256028588130403e-05,2.8692700372553794e-06,-1.4403739217331076e-06,1.21378467949982e-06,3.693142764532231e-05,6.105585830720403e-05,5.639353065400482e-07,-2.044056994076983e-06,8.146581940338959e-07,5
-4.494161742116142e-06,-1.4571088737224195e-06,1.1149357257042056e-06,2.295991589235925e-05,1.3504202048350163e-06,6.790924573052939e-07,2.076821930992282e-06,3.7505480643857506e-05,6.60515600105918e-05,1.9068412745746925e-06,-1.07915415186759e-06,2.000618388812887e-07,5
-4.6079176819271585e-06,-3.6741902174056414e-06,4.03298762031416e-06,2.4323231210290033e-05,7.90071126826808e-07,7.037156543771469e-07,5.935544373717857e-06,3.5766169486779364e-05,5.4106872125366194e-05,1.6274428651374925e-06,7.816775069309339e-08,-4.5100163911578296e-07,5
-4.396583605591179e-06,-2.1952026292349126e-06,4.460910939824737e-06,2.2692548633480852e-05,1.5191403366031226e-06,-7.242583908682308e-07,8.180981974603742e-06,2.782619587915018e-05,3.723289356715745e-05,2.224062390947622e-07,-7.216527620103225e-07,-4.3819130881385087e-07,5
-8.707759826278269e-07,-2.597220693845671e-07,2.6834325326612382e-06,1.2294325425272034e-05,1.6029888060603583e-06,-7.370660900150568e-07,8.067259781367425e-06,1.2350200612146543e-05,2.33958184428786e-05,-1.4204614136963167e-06,-2.5332315185214177e-06,1.585087874700442e-06,5
3.1790428577285727e-06,-3.8583456199377916e-07,-2.4271144783204506e-07,-3.7380451927660376e-06,1.6047619130056786e-06,5.0334765994465545e-08,6.531324002343658e-06,-9.969095720114129e-06,1.661185127785985e-05,-3.270076851266462e-06,-1.729740812076103e-06,3.421117554127117e-06,5
4.573663525398084e-06,-1.5794003408225512e-06,-3.70906826226596e-06,-1.8019953484820366e-05,-2.1029235321654283e-07,1.2454220306572756e-06,3.067682962805874e-06,-3.3828049473629866e-05,1.4116021853680107e-05,-3.9827057738259855e-06,9.96977596712163e-07,2.1552941295262837e-06,5
2.5803737681434497e-06,-2.5979177980429807e-06,-6.986791206805058e-06,-2.5885006042415127e-05,-3.166326291254982e-06,4.246962563560298e-06,-9.99803305992139e-07,-5.246221806608871e-05,8.44866681170672e-06,-2.9009138284606176e-06,6.611208597927715e-07,4.1641376089216666e-08,5
-8.367766810417291e-07,-1.7672092336969867e-06,-9.937001767126911e-06,-2.6063142823529947e-05,-2.7902834214658597e-06,7.11475658254081e-06,-4.232670762343007e-06,-6.2229629271663e-05,6.054262714968209e-08,-5.3069835733906e-08,-1.1089482560370622e-06,-1.1188109872835052e-06,5
-1.3755638499990132e-06,-1.3781514466742518e-07,-1.1349254058382367e-05,-2.15677486050204e-05,-6.772604293998917e-07,6.302499851562015e-06,-7.148053129677023e-06,-6.005158960661318e-05,-7.185330585118392e-06,4.3311764367864495e-06,1.1093554324564504e-06,-2.8195065689025208e-06,5
1.5313521214507246e-06,3.4888051747298665e-07,-9.167062109788694e-06,-1.6898811933905675e-05,-2.430742773917189e-07,1.5791055527301126e-06,-9.125871853030622e-06,-4.3291940806529045e-05,-1.5921941142960733e-05,7.429433449063624e-06,4.322990564481257e-06,-4.644975025199494e-06,5
3.68234105941093e-06,1.0734453310276755e-06,-5.302701720879341e-06,-1.3726052855285846e-05,-1.3412972363092912e-06,-2.7281202601355037e-06,-8.964288157135364e-06,-1.305105410385584e-05,-2.5366085066654537e-05,7.049290190745805e-06,3.4537283291531777e-06,-4.242448293186392e-06,5
2.883664496456422e-06,2.778350446501325e-06,-2.112302185919209e-06,-9.450709547527932e-06,-2.259646323414637e-06,-3.682129264537263e-06,-7.158369183780214e-06,1.928158762855882e-05,-2.9262575081559293e-05,4.538960752991147e-06,7.71014695696287e-07,-1.403465277996577e-06,5
1.1243569399136607e-06,3.6390826788815755e-06,1.6468901239444652e-06,-3.028302286865343e-06,-1.1859364100468952e-06,-3.867938433906741e-06,-3.327144315789753e-06,3.664086008734572e-05,-2.6864243283109338e-05,2.0333618918314245e-06,-6.634223463983228e-07,1.8807339405502662e-06,5
-2.494544068023111e-07,3.1255822056283086e-06,5.031922288479105e-06,2.3565923741303254e-06,3.068587144640577e-07,-4.232073029948627e-06,1.5159241404766763e-06,3.272412228336709e-05,-2.0498895531825917e-05,7.400268922976819e-07,-8.056573793938372e-07,3.6067377505084875e-06,5
-2.627645270660731e-06,1.321079159267592e-06,5.784726748317658e-06,5.308585896719171e-06,6.849692986043009e-07,-2.1681044218441737e-06,3.859620162319408e-06,1.552393482091893e-05,-1.1411773094811594e-05,-2.69159344230012e-07,-3.753684677585561e-07,3.539399463099984e-06,5
-6.190515192127444e-06,-1.4272117772808904e-06,3.882244880708001e-06,7.046050328094935e-06,6.828237849465966e-07,5.235772690113475e-07,3.86426932264789e-06,3.100286085746477e-06,-4.0401133563384255e-06,-2.589993794908331e-06,-5.044751235815972e-07,2.9640678190028134e-06,5
-6.844412602174744e-06,-2.5406137145170986e-06,7.723485859723864e-07,8.983789294513718e-06,-2.5296636617589864e-07,-2.705705617705584e-07,3.2444415595231935e-06,8.477620225778587e-06,-4.877099600882495e-07,-5.26631750215961e-06,-1.1527440028279562e-06,2.1084117222458335e-06,5
-2.9246472770555e-06,-1.9024575584491587e-06,-2.1847063351062533e-07,1.1527584082391245e-05,-1.4267427939755517e-06,-2.8024536989241903e-06,2.102960734849417e-06,2.241151410251971e-05,3.066322909111324e-06,-6.9194747541851115e-06,-1.6261277431153508e-06,1.4815092834635469e-06,5
1.2914569908762589e-06,-1.4589629446929297e-06,1.6450675717414284e-06,1.2659471144793764e-05,-1.6343486011729565e-06,-3.875671345678816e-06,3.6063262577321526e-07,2.9153647941427512e-05,6.087900283999202e-06,-7.050607240894456e-06,-1.1701718576237882e-06,1.331119446525726e-06,5
4.081909341582169e-06,-1.1499603230642567e-07,3.282961481483128e-06,1.0327219117642338e-05,-1.175314350615062e-06,-3.592486914687824e-06,-2.901113774893442e-06,2.2806862258152318e-05,6.454740394378216e-06,-4.431789594083179e-06,6.871918384924753e-07,-7.961953079798371e-07,5
5.1597383755078326e-06,1.4419541870853482e-06,3.84061181484319e-06,6.7051231520502465e-06,8.851180755412156e-08,-1.4747349838225941e-06,-5.5989428470100305e-06,2.7569449676544054e-06,6.7636384004788975e-06,-4.565188284149838e-07,1.3552168316748954e-06,-3.5512183599394334e-06,5
2.445056099128216e-06,9.139775717238177e-07,5.4056040138116105e-06,5.647154557488931e-06,1.2442370585937636e-06,1.5834126515043228e-06,-5.130004842590997e-06,-2.1157544222421584e-05,7.690479415652253e-06,1.6715880883688384e-06,-7.185496156043374e-07,-2.4044444234908244e-06,5
-2.289486896473403e-06,-6.479802897860294e-07,7.482554598151661e-06,4.880613860511551e-06,1.260230721330884e-06,2.6726981479264893e-06,-2.555993200197873e-06,-3.150834108020597e-05,8.421467142187449e-06,1.8821428914054224e-06,-2.4237420193870782e-06,3.4892961378894307e-07,5
-5.161347144457396e-06,-2.3129825127858664e-06,6.252981852506107e-06,1.3066072919964068e-06,1.0196450960797349e-06,2.5914712481949438e-06,2.066961411170638e-06,-2.366271663399192e-05,8.670065161533995e-06,7.425337932482082e-07,-2.122891126740315e-06,4.937856950204594e-07,5
-3.892033384996238e-06,-2.647843986526948e-06,2.345417417488425e-06,-9.825180364177623e-07,1.7764293186776752e-06,3.370711356813105e-06,5.727255589905171e-06,-9.097170915016594e-06,7.809978206986652e-06,2.4431049235565514e-07,-1.0789204407368411e-06,-8.951239797022963e-07,5
-5.091515958010492e-07,-3.760761941995371e-07,-4.538673062689248e-08,-8.057031748001842e-07,2.9476041656093815e-06,4.099636845153106e-06,5.120987678658889e-06,1.4875679124515846e-06,6.097767741869328e-06,2.3933247895559463e-06,-2.7581211334526807e-08,-2.2201803110386037e-06,5
1.1834812925314171e-06,1.7902244078487477e-06,-1.2227094890474537e-06,-1.9838734529221093e-06,2.583608435011988e-06,3.966313465442323e-06,4.453269683581154e-06,7.832346000905616e-06,2.7203968599447585e-06,4.4820593674898946e-06,1.3719129326277571e-06,-2.482976673682271e-06,5
2.815555878323586e-06,2.8486447224904634e-06,-3.2159971472287947e-06,-3.552407024836863e-06,1.4361978582413597e-06,3.629582259217521e-06,5.870506102148566e-06,1.1738863812317037e-05,-6.66846190543385e-07,5.405192407575419e-06,3.2155337072950986e-06,-1.519935059179058e-06,5
5.259496354195931e-06,3.3418977238169235e-06,-5.535594489364609e-06,-4.014067015171192e-06,1.3908411612030383e-06,2.6464178862904913e-06,6.6943745513934065e-06,1.1519121085499516e-05,-1.4059624939278847e-07,5.038222396870536e-06,3.0314387934234736e-06,-5.59085029321346e-07,5
6.750992486932831e-06,2.1297754035676677e-06,-6.5047833075784274e-06,-4.524929759882399e-06,1.5423564734564718e-06,4.169675472086181e-07,5.837763341413094e-06,8.138625488881654e-06,1.0652126623901935e-06,2.320481822760502e-06,6.542764461867359e-07,6.730549059142269e-07,5
7.493196090511235e-06,3.33383222696069e-07,-4.545783323124243e-06,-4.110718765906024e-06,9.598191476542362e-07,-1.134147891457247e-06,4.629001772754141e-06,3.5144213045401715e-06,-1.9606411306070057e-06,2.3187942828099998e-08,4.798336675604188e-08,1.4205888324164742e-06,5
6.276603689372116e-06,-5.66217640192091e-07,-1.3350282270030349e-06,-3.0143325109130787e-06,-2.1483401833048916e-07,-1.1979885582573701e-06,4.011035768313714e-06,-4.161677121799781e-06,-5.828696289884477e-06,-7.739224792355602e-07,8.467215740435702e-07,7.627376561149292e-07,5
2.3589903648150252e-06,-6.049360445827865e-07,-7.670958331930465e-07,-3.7933036760985577e-06,-2.0630940398072604e-06,-1.7996210546559485e-06,1.083365593477057e-06,-1.178058112474252e-05,-6.769126571540438e-06,-1.9587422216798e-06,2.1238432435058955e-07,3.125958606030403e-07,5
-3.338771081403493e-06,2.4958587633726324e-08,-2.051494634759191e-06,-5.634702060814163e-06,-3.0184619157611464e-06,-3.177398817098599e-06,-4.167968878475441e-06,-1.1743912645098733e-05,-6.319902650568155e-06,-4.662690707623866e-06,-1.3450387061656926e-06,2.3483513666063664e-08,5
-8.861664955857611e-06,8.028777001487157e-08,-1.694151049613483e-06,-6.6312654535921915e-06,-2.0127319740017597e-06,-3.8072237038543757e-06,-7.314297781269213e-06,-7.567132740036542e-06,-4.614083161208306e-06,-8.412344817984138e-06,-2.453515171866134e-06,-4.607712020083114e-07,5
-1.1147942167494977e-05,-1.3803440546347558e-06,5.472383563142917e-09,-6.7907498740989965e-06,-1.5985707423509287e-06,-3.1304959727507623e-06,-7.787223795963833e-06,-6.331798396211559e-06,-1.3001876613980262e-06,-9.233203966839994e-06,-1.90963035482071e-06,5.584640030963751e-07,5
-9.745158723499156e-06,-3.3513431904619847e-06,4.2856501869303226e-07,-5.075885540052604e-06,-2.766165318380313e-06,-1.8317504810067028e-06,-6.699636286276909e-06,-3.34953584081386e-06,9.287668760712895e-07,-4.904743260966601e-06,-2.5392471004121755e-07,2.7749310795450247e-06,5
-5.494328580351953e-06,-3.342537303547308e-06,-1.2996722238504983e-06,-2.195631644976246e-06,-3.2537155338616995e-06,-1.2074631409827793e-06,-6.029462991661954e-06,3.780173435747815e-06,1.1986408086805508e-06,1.534944322723808e-06,-1.219041811185334e-07,3.9466341261188836e-06,5
-6.241821739094172e-07,-8.925178859833249e-07,-2.936979209627768e-06,1.2309319134045992e-07,-2.0842331206770387e-06,-1.0600322308150954e-06,-7.656902119401942e-06,8.726160328632546e-06,1.5316140639294117e-07,4.752119773538697e-06,-1.0214119223885566e-06,3.0956300687598473e-06,5
1.9307942418928464e-06,9.449580265062619e-07,-3.033267833404955e-06,2.896894305648205e-06,1.324787599527146e-07,3.11467462281648e-07,-7.981697991307832e-06,9.397915994614128e-06,-2.02032826958059e-06,2.800813706111731e-06,-7.590301752121021e-08,5.734262157015646e-07,5
2.3327729252587024e-06,9.186155318037325e-07,-2.2662717963006874e-06,4.4594022220519916e-06,1.5837341399954846e-06,2.39093301202313e-06,-5.271865066182755e-06,5.99181441150429e-06,-2.8811195796329392e-06,1.167249514415279e-06,2.191155770435608e-06,-2.047441369125025e-06,5
1.521470823079676e-06,6.793545033573336e-07,8.002150174931535e-08,3.953549090305493e-06,1.068212528742819e-06,2.8000912505271335e-06,-2.4718944996346636e-06,-7.832506784985693e-07,-3.115033437599397e-07,3.019972156615586e-06,3.4835803463906703e-06,-2.6268267282887514e-06,5
1.3490974991721568e-06,8.471279976883787e-07,3.326121719349018e-06,5.511341097498089e-06,1.4026728327565937e-07,1.578960297082722e-06,-2.7958400711798073e-07,-7.010760870443826e-06,3.815111989380182e-06,5.427210427533276e-06,3.4803921231110567e-06,-9.01488044016161e-07,5
3.5335250758418895e-06,1.1288487460830589e-06,4.9078242676639365e-06,8.913160660052408e-06,-5.410036523005095e-07,1.6806425405270595e-09,2.1683145298265955e-06,-1.0772684281837964e-05,5.492016768952484e-06,7.076797532978297e-06,2.0482315115994264e-06,1.0840422371971614e-06,5
5.9195041853150015e-06,9.660809101083977e-07,4.396332877021836e-06,9.918230856514309e-06,-1.3203508013274157e-06,-1.143994020095318e-06,5.322353956362383e-06,-8.509295190690462e-06,4.158297863172608e-06,5.812707670745716e-06,-7.367079675888214e-07,9.786494271944376e-07,5
6.492355875889419e-06,2.2889950167286151e-07,3.0053124612531642e-06,8.03361422229172e-06,-6.274596196845095e-09,-6.752877533852338e-07,8.425695666744647e-06,3.116891871032613e-06,3.428651944700669e-06,1.420622331383078e-06,-2.83961045300254e-06,-1.37739480852181e-06,5
5.908840892538263e-06,3.337816521970964e-08,1.4479561240103163e-06,5.051954753811874e-06,3.3975195261034087e-06,2.8909066916884156e-07,9.976241000764959e-06,2.118643937199786e-05,3.656414340445516e-06,-1.363581210886011e-07,-2.7317020810953105e-06,-3.958869886831751e-06,5
4.183229108431605e-06,-3.3839985721700584e-07,-3.2168288975747e-07,1.4778498680168152e-06,4.454789232250696e-06,2.7569923467264404e-07,9.328793749438736e-06,3.73602496133979e-05,2.3763032314932154e-06,1.0890141572697303e-06,-1.7130466547966487e-06,-5.160978889404567e-06,5
1.3131312321690559e-06,-1.2976764272416503e-06,-1.377940469738133e-06,-1.33606825648088e-06,2.4935364151064182e-06,3.78638315838596e-07,7.382083997379988e-06,3.313099482596285e-05,2.708719066039925e-07,-7.855382707984019e-07,-2.112904981456097e-06,-4.5266014994329935e-06,5
-1.7048169223300154e-06,-1.0838728549732539e-06,-1.6512656542182212e-06,-1.706140828817573e-06,4.2683356714927324e-07,5.514717544153555e-07,5.777273703674892e-06,6.367902985682767e-06,-1.095462445215957e-06,-5.079268148738286e-06,-3.2192872550673284e-06,-2.1219107977616567e-06,5
-6.084922177036e-06,-1.4802049019226142e-06,-1.701770510817576e-06,-1.642076928553376e-06,-7.137791161797355e-07,7.596687630455028e-07,2.8227154861775874e-06,-1.4006143286230565e-05,-1.0057634889997833e-06,-7.0854673104466705e-06,-2.290573505721317e-06,1.2376225018209708e-06,5
-1.0882891792949213e-05,-2.9059046590031853e-06,-3.1121720794610487e-07,-2.742287998023799e-06,-4.3930045994194145e-07,7.36620621714459e-07,-2.336142658408512e-06,-1.7834623766308285e-05,-1.9836287234875353e-07,-6.354659551932076e-06,-4.183918740476446e-08,4.010677781845091e-06,5
-1.016170983988651e-05,-1.6125941431553842e-06,1.7073958542521498e-06,-3.466505531147487e-06,1.6444652376197978e-08,-1.086316367857425e-06,-5.7582845749722555e-06,-2.0948554881626835e-05,-1.4209556159614943e-06,-6.208079961184318e-06,1.0597469491948419e-06,5.11529651786229e-06,5
-3.6139206890003827e-06,1.5653772198217032e-06,3.1122616311023903e-06,-3.8263759387789816e-06,-2.483879510018848e-07,-2.5772440486062128e-06,-6.259369074840564e-06,-2.6995692311033298e-05,-4.0713177250279285e-06,-6.141643000660293e-06,1.1527607329030947e-06,4.292320834423773e-06,5
2.055979063763998e-06,3.9420693422735864e-06,4.066009200680106e-06,-5.129295219092075e-06,5.82180768810808e-07,-1.730356174504506e-06,-6.5137833361638025e-06,-3.074107328930278e-05,-6.030523760032102e-06,-3.2731225320391046e-06,1.6032999400759079e-06,2.1967689462853486e-06,5
2.67023754575038e-06,4.771319893248577e-06,3.1821861862375007e-06,-6.25676829369475e-06,1.054797498957096e-06,-4.784454913848326e-09,-7.346147971901817e-06,-2.9133872235608448e-05,-8.031241586090371e-06,7.248335839408221e-08,2.76222300340737e-06,5.643315790447675e-07,5
6.543451727396868e-07,3.614721696619229e-06,1.384761958256809e-06,-5.167364923318504e-06,-8.574566357984969e-07,1.680684177549193e-06,-5.872980552693751e-06,-2.095961364493452e-05,-8.585836351062682e-06,1.9581628290983735e-06,3.4434737689795693e-06,3.5880139884884067e-07,5
1.1751552434637075e-06,1.7302462398626498e-06,1.1948108845691848e-06,-3.2636945520651016e-06,-2.737163110418406e-06,3.1726324764950492e-06,-1.0263325303127638e-06,-1.1707808638386788e-05,-4.858257454474989e-06,3.389104126691406e-06,2.5766261339133665e-06,1.1011678404324452e-06,5
3.609719092435457e-06,-2.3762488079222092e-07,1.467053304571307e-06,-2.676550569219654e-06,-2.2991305259449887e-06,4.2676384558338115e-06,1.7453291577785883e-06,-8.69302020820743e-06,2.2985654520689806e-06,3.5674468273747787e-06,6.086968746518394e-07,7.428970479048693e-07,5
4.385523027185115e-06,-2.2311001367977794e-06,1.5174357376870233e-06,-2.431772091404181e-06,-1.6546476601690437e-08,3.576207653247298e-06,6.315848327039679e-07,-9.278018612898534e-06,8.661616103976675e-06,3.303857305038358e-06,-7.200978595896725e-07,-1.3690233823643665e-06,5
3.675462879432622e-06,-2.6556194472959113e-06,4.278988133380825e-06,-2.0421778546684107e-06,1.4525119562277509e-06,9.816607895619511e-07,9.342814581139007e-07,-4.6348478315470135e-06,9.000467940103565e-06,3.8661149004796625e-06,-2.6956253541643975e-07,-1.9999525753956456e-06,5
2.1124834689872214e-06,-8.625727038962045e-07,8.219001647256325e-06,-1.151510616392996e-06,5.507239173138256e-07,-1.9466328897029623e-06,3.1190077283463172e-06,6.752103279147181e-06,4.09266853733516e-06,4.311111425740539e-06,1.3464634219100055e-07,-1.3755949401566669e-06,5
6.53569164590619e-07,9.188335758779926e-07,5.213232782062749e-06,1.9110087367566146e-06,-7.213863184296976e-07,-4.198889201242351e-06,4.6094601150107225e-06,2.439655098642869e-05,1.4559601869834428e-06,4.186151137351937e-06,-2.807050401642334e-07,-1.5716584790970788e-06,5
5.78796979217026e-07,6.22725349684059e-07,-5.047085211713146e-06,5.537570849561531e-06,-1.010204288064528e-06,-3.3491116196858025e-06,5.993556184415237e-06,5.037915881192157e-05,2.877239523671341e-06,1.756212689707472e-06,-8.579811933618442e-07,-3.531147851137598e-07,5
1.4811117176863658e-06,3.0122661702652745e-07,-1.3301343967418386e-05,6.3379781286460875e-06,-1.2491774341923789e-06,-1.3744553169332461e-06,5.925179624464972e-06,7.969452048126094e-05,3.2594913497765667e-06,-1.3716617504066818e-06,-2.329281621723297e-06,1.1302384035230167e-06,5
1.6956796233882388e-06,1.2335590187706587e-06,-1.6613973438245655e-05,5.027956749767227e-06,-1.4275171563500079e-06,-1.8341509808605785e-06,3.325498692785166e-06,0.00010417021642942145,2.11473973922831e-06,3.394581606754992e-07,-2.3633808043544387e-06,4.339480774965226e-07,5
-1.0711785134046855e-06,1.1544053185344928e-07,-1.7470050357480793e-05,4.098943433039134e-06,-7.82077107747674e-07,-1.166914271796933e-06,9.967337102311796e-08,0.0001042706082663193,1.2512852628764878e-06,4.245363989423981e-06,-1.557556724688659e-07,-2.7582906344117895e-07,5
-5.1524766202329515e-06,-3.318617028589642e-06,-1.4671408385501596e-05,2.881453322050872e-06,-1.2750734781059589e-07,3.84651412355562e-07,-3.568274146020916e-06,4.3456856365067704e-05,-5.353711683272177e-07,4.994318848114352e-06,4.7421091127470134e-07,-1.0078285266577074e-06,5
-6.753432621580991e-06,-4.615239306535201e-06,-8.381252817688833e-06,4.866426481655821e-07,3.774391430886482e-08,-6.247035426171125e-07,-6.890729840626397e-06,-6.8646962911292e-05,-2.4244196911437504e-06,4.827708718893894e-06,-3.0825079467006383e-07,-2.3689566482061915e-06,5
-6.037943667187884e-06,-3.2452196799596174e-06,-1.862701723273584e-06,-6.361170795960147e-07,7.481382376701173e-07,-1.0423756451665957e-06,-7.563440983853846e-06,-0.00014144593161650497,-2.9231804724768877e-06,5.289299986310612e-06,-8.483509067579852e-07,-2.465539733590396e-06,5
-4.230663091514278e-06,-1.7616782030024789e-06,3.6732408860170488e-06,1.4055844374337346e-06,1.5108238458031926e-06,3.652670700947309e-07,-6.206846298799026e-06,-0.00010964911168221937,-2.8645360868520543e-06,3.6061102471940185e-06,-1.436814889703955e-06,-1.7722725392894633e-06,5
-7.446980334884712e-07,-2.617768542017554e-07,7.5120094998257115e-06,3.7231760929772523e-06,1.3597700057871907e-06,1.084169142272752e-06,-4.204628539659415e-06,-2.5713611540110085e-05,-2.678483634384249e-06,-6.139654089553713e-07,-6.115120887431912e-07,-1.2866538837757375e-06,5
4.351972886830216e-06,6.487918068525088e-07,8.787452067646752e-06,2.450144048311261e-06,1.0103502364470701e-06,1.2725788680653705e-06,-1.3977139417259814e-06,2.0013849164060486e-05,-2.6293638978611085e-06,-5.766901479053681e-06,1.8245590304765497e-06,-8.374556680158462e-07,5
7.049813921688312e-06,9.394067817269745e-07,7.97675154899489e-06,-8.632531790490185e-07,1.0931013393321066e-06,1.859308992559119e-06,9.849366823933229e-07,8.474584329692489e-06,-1.985107927658483e-06,-1.1535713790199838e-05,3.0254726063928205e-06,-9.124307846825615e-07,5
4.864376740210277e-06,1.2849216075072399e-06,6.21792969060956e-06,-2.5175302300471495e-06,2.010235948961892e-06,2.763836587241446e-06,2.1289807266936696e-06,-2.345784379077193e-05,3.3671867598798195e-07,-1.598241566408124e-05,2.0949101550363103e-06,9.171404264556761e-08,5
2.3826253367670936e-06,6.074722267401109e-07,6.83800443939047e-06,-2.2987526898963236e-06,2.9001640493780026e-06,3.2848020922773256e-06,3.7973326093376333e-06,-4.904212479789157e-05,1.9536471068216192e-06,-1.6780723454700337e-05,7.366928564172419e-07,2.9957944570102155e-06,5
2.0826653231812647e-06,7.896408579615744e-07,1.0276171721113592e-05,-2.3953781968893444e-06,1.576264535432519e-06,2.0917242845004e-06,4.945756845148415e-06,-6.615675238871435e-05,3.8784802003510373e-07,-1.490352517218878e-05,-1.0762985142275415e-06,4.224495224426929e-06,5
1.3816582533221591e-06,1.7792200201452188e-06,1.1198098373967667e-05,-4.604859376284055e-06,-1.0733489033614006e-06,-1.4662429618376333e-06,3.865162883282008e-06,-6.799688478413106e-05,-2.556543380550479e-06,-1.1200981510909699e-05,-3.097096814443764e-06,3.250959261585035e-06,5
-7.125460624249653e-07,8.526756636362959e-07,8.942718326720478e-06,-6.826297195335225e-06,-2.5751184968961463e-06,-5.2889677206641e-06,2.7853383938772454e-06,-3.6034260893000957e-05,-3.3061882073653095e-06,-6.121359384879121e-06,-2.768601346469622e-06,3.0963705971627172e-06,5
-3.6213035466818847e-06,1.151192740708843e-06,6.647557347986885e-06,-5.7959884516506515e-06,-2.777876414016555e-06,-5.611592064545412e-06,1.948385957729611e-06,3.2925027178932174e-05,-1.2087124322917539e-06,-4.3075872231571136e-07,-8.35415546075434e-07,3.7188802426802244e-06,5
-5.483759387839081e-06,3.438605673366706e-06,3.085285593237273e-06,-2.6708210457036658e-06,-2.1456559724105505e-06,-2.1277874692892833e-06,3.0561557474543187e-07,0.00010982514196129107,1.5058193484112611e-06,6.421053385586615e-06,-6.929485033646025e-08,3.2948536889064397e-06,5
-4.523861571418839e-06,3.928754411177514e-06,-2.3585370736082405e-06,2.2448511909883768e-07,-1.680738779428353e-06,1.5692986269146523e-06,-1.0568096282869775e-06,0.0001528142997046529,3.1418654595536687e-06,1.2931681545765147e-05,2.85465853909311e-07,1.1584025185873136e-06,5
-3.0017766720004823e-06,2.175524025054821e-06,-6.506975062398046e-06,2.042800039718804e-06,-2.1628879615572676e-06,2.6172134467386237e-06,-1.9699011383764224e-06,0.00014655256704591843,2.906107622040318e-06,1.5485488843044476e-05,1.2123351683811586e-06,-8.195035171580927e-07,5
-3.7407856686762566e-06,-1.379807411440058e-06,-7.796174591910942e-06,2.82539784628192e-06,-2.1677981058579877e-06,1.0047363735785366e-06,-1.2462221883353582e-06,0.00010370232190107192,2.086754163290323e-06,1.3637367017359746e-05,1.7553106215890348e-06,-1.924027903433822e-06,5
-3.21449096908199e-06,-4.732463041806079e-06,-7.638257780291354e-06,3.717198126181709e-06,-1.175628163359698e-06,-1.270343118731564e-07,2.3638867861443578e-06,4.2929890305596494e-05,2.46771099787739e-06,1.228687074306466e-05,1.9047537679157723e-06,-4.914098773144414e-06,5
3.836747967477407e-06,-4.603222320618474e-06,-7.456283737832874e-06,4.591787135866008e-06,6.344364461973449e-08,1.3154813229236398e-06,4.757716039258702e-06,-2.4224898487676817e-05,3.0090724522860995e-06,1.4339222983256828e-05,2.120635917172378e-06,-7.313384063442476e-06,5
1.3409933427811036e-05,-1.5034059788761814e-06,-7.165321935127999e-06,4.435679429360839e-06,2.1190223955741892e-06,3.0372875437798915e-06,2.2019655450248656e-06,-9.900548156763773e-05,2.2288611597519833e-06,1.4626296154100198e-05,2.0848685965672683e-06,-4.01145133123692e-06,5
1.5359984074319255e-05,1.5810085551501633e-06,-4.9887307374675785e-06,3.903184048689847e-06,4.736968361319569e-06,3.212034982620643e-06,-1.9679256408906874e-06,-0.0001590176724233829,-8.250964886463695e-07,1.0428245061100469e-05,8.082161031809975e-07,1.0225406808966527e-06,5
6.457289710108417e-06,2.2053546502922396e-06,-1.9950701510280482e-06,3.0068988691610214e-06,5.5970451517417585e-06,1.5925141878923902e-06,-4.166875578413429e-06,-0.00015730461544962302,-3.5058973995640597e-06,5.007418016780046e-06,-1.6010545853522786e-06,2.2077045771344123e-06,5
-4.2600010944549836e-06,1.018085336075706e-06,-2.066430368644695e-06,4.462223868926241e-07,3.922949430933087e-06,-8.267600816496534e-07,-4.6343472273964006e-06,-8.72616672575772e-05,-2.6824122604007566e-06,-1.0201679367985146e-06,-1.987149342737345e-06,1.1246360713727806e-06,5
-6.706372598103666e-06,7.422209460110496e-07,-3.75241969100662e-06,-2.4264346868579538e-06,1.6939811315266792e-06,-1.133156677581345e-06,-3.43895412967704e-06,6.11331008820104e-06,-1.7571302836380766e-06,-6.6028457417778265e-06,-8.310107487106875e-08,-6.45475918023271e-07,5
-4.041460556740005e-06,1.2414645956322717e-06,-3.4370834245959424e-06,-2.921040627795385e-06,-8.905733130264426e-08,3.758135620765658e-08,-1.6641232265453474e-06,6.400874545673069e-05,-1.707772400555023e-06,-9.244444588813657e-06,1.533776978762502e-07,-2.6992679877660474e-06,5
-3.830632127703389e-06,6.881255694550901e-07,-5.00266624144534e-07,-2.1045529982733465e-06,-1.8780476004328547e-06,-2.718516469978668e-07,-4.2575659907521083e-07,6.047461116827831e-05,-1.0959250446168108e-06,-1.020926484987039e-05,-7.025408541361794e-07,-2.320952033155451e-06,5
-6.319933384663988e-06,-7.853688000339216e-07,4.283081819395984e-06,-2.73766513119568e-06,-3.830045851806786e-06,-2.1181863470359e-06,1.0942609793097886e-06,2.5557894541027982e-05,-8.345724895267228e-07,-9.099426668572864e-06,-3.204476867818341e-07,3.385403782096415e-07,5
-8.836993337653228e-06,-1.9985284071076416e-06,7.249343455640387e-06,-3.6041390069481036e-06,-5.759632504285302e-06,-3.9392468206565474e-06,1.7265460618812522e-06,4.0648045970093564e-07,9.982583892788847e-07,-4.190062007960448e-06,-4.011585632847827e-07,2.0794493424325937e-06,5
-7.4045283858269785e-06,-2.0775836712413277e-06,5.694970823111456e-06,-2.0463249373799476e-06,-5.201732850727599e-06,-3.435475356345394e-06,5.475323111956634e-07,-2.192080124453486e-06,2.2311825258879035e-06,-2.442935009065875e-06,-1.5331058206959353e-06,2.5233633527840665e-06,5
-1.6810591809915245e-06,-1.5111764989900105e-06,2.4465846909645424e-06,-1.8005878747212842e-07,-1.290269511078353e-06,-2.5451509200380113e-07,-1.1457372629572505e-07,9.490930651530018e-06,-9.558954687308886e-08,-1.0126098603433387e-05,-1.7840202912266353e-06,2.8773369039528965e-06,5
2.5125888688931803e-06,-1.57085924406499e-06,1.2999086679326451e-06,-3.59644205529468e-07,1.4598533178513388e-06,1.847322311458844e-06,3.821932430715674e-07,2.055003892669571e-05,-1.3945637032200713e-06,-1.903131289697284e-05,-8.637164231238019e-07,2.250319330898681e-06,5
4.358023622359626e-06,-1.7272719000233625e-06,1.6203856313848196e-06,-3.4629518912544245e-07,9.358876442996594e-07,3.045033006302759e-07,1.442876090994277e-07,2.228619333147777e-05,-4.435422979934338e-07,-1.9569075869620087e-05,-3.84893769206203e-07,2.4902065697447587e-07,5
7.177942562866603e-06,-1.5732542738387967e-06,5.193347895829654e-07,9.163739913978075e-07,-3.000223401047351e-07,-1.9848820026825624e-06,-4.323444808686528e-07,1.674666503844857e-05,6.866697150461441e-07,-1.3132268680994542e-05,-7.265607502186731e-08,-5.126320902700032e-07,5
9.044115879760054e-06,-1.0900488022778907e-06,-1.1766176431300276e-06,2.200714858688921e-06,6.512500777643047e-08,-1.2747894263812917e-06,3.315339367477591e-07,8.716831986044135e-06,1.910796923403163e-06,-5.274843396911858e-06,9.019397159776742e-07,4.816984867936495e-07,5
6.558937909715298e-06,4.6772381957383676e-07,-9.686379805259855e-07,2.7317308397134844e-06,2.3071926374950395e-06,1.2948188806236055e-06,1.6116551215895691e-06,2.8762795227607787e-06,2.034694999734826e-06,1.6997560465699346e-07,5.131650169192058e-07,3.3556173278560586e-07,5
2.187667930004075e-06,1.5537758419529364e-06,6.299636851346858e-07,2.087837316856341e-06,3.6915435694479437e-06,2.9011466324252226e-06,1.4640037866471794e-06,7.5998396275158925e-06,7.19438939236288e-07,4.183173358438043e-06,-4.3307894241973753e-07,-1.5318669565896638e-06,5
2.0956762320179961e-07,1.5923816123397246e-06,1.8160606767220837e-06,9.620706790834494e-07,2.366720602955468e-06,2.9830972151293966e-06,-6.996601840004493e-07,1.9076993663892967e-05,8.499056649822108e-08,1.1603932060414007e-05,1.0730586714369492e-06,-2.8230156091249544e-06,5
-1.6420536423203264e-07,2.262618286843518e-06,1.63923830146362e-06,-6.240062220888421e-08,8.567448202139857e-07,1.7148034919171272e-06,-2.1366663844210315e-06,1.4220157615528767e-05,1.0547285417388697e-06,2.1294610847715336e-05,2.558024433849252e-06,-1.5827283097288327e-06,5
-1.5746088967174032e-06,3.0762539248024763e-06,7.478128293887385e-08,-6.011901559952975e-07,1.723214435137395e-06,-3.126194686953732e-07,-3.099951004651082e-07,-9.55196369534792e-06,1.0347591873681981e-07,2.5347470356921522e-05,1.3385174371589875e-06,7.198601234452801e-07,5
-4.809277375220904e-06,2.886412696218518e-06,-1.7953866529279734e-06,-4.5154315683311116e-07,2.756990864250698e-06,-1.6496136351340475e-06,3.2211918786100935e-07,-2.4822569997191794e-05,-2.421643773041021e-06,2.0630544710844255e-05,-5.860948747817197e-07,1.2942740105159506e-06,5
-7.903503021028965e-06,1.2410184511024378e-06,-2.5319973831180467e-06,-5.847447685419716e-07,6.496774534097386e-08,-1.3620628249583865e-06,-3.561974627360341e-06,-2.0458916090228035e-05,-1.967172054242292e-06,1.0806273416763464e-05,-7.24899297542877e-07,1.487289955382529e-06,5
-6.696536530597735e-06,-7.219245886870747e-07,-1.866488642043659e-06,-1.0660646311810238e-06,-4.206805283155061e-06,-6.635914091875947e-07,-6.0422574794504565e-06,-1.1912114353887178e-05,-1.5748195927449795e-06,1.5770669984355107e-06,1.0300910196308316e-06,2.4459251814293952e-06,5
-1.2077112692873947e-06,-7.001673557965651e-07,-8.054118859602391e-07,-1.150959557011877e-06,-4.7480496012436185e-06,-9.181612803448467e-07,-3.2023557350397107e-06,-1.1316991896474602e-05,-2.7264637417427528e-06,-1.5121930561473654e-06,9.774973791959732e-07,2.095215009722938e-06,5
3.7129617634691073e-06,2.628787893765973e-07,-1.040473592921903e-07,-1.347480580324425e-06,-1.7591180028196487e-06,-1.1862457687669741e-06,1.6841087899477538e-06,-1.608147103745449e-05,-1.5323902403427499e-06,-3.064800399169418e-07,-1.425542368233561e-06,8.058675731956382e-07,5
4.37109608982277e-06,-5.290851495949684e-07,8.922731702119418e-07,-1.8399157510408128e-06,6.495647488111998e-07,-5.438211528841469e-07,5.805448042295864e-06,-1.9158162886712726e-05,8.565722320126647e-07,-9.232305335954962e-07,-1.323938752711339e-06,1.1102200020711292e-07,5
1.0586939949899405e-06,-2.2179926721455985e-06,1.967491784614553e-06,-9.768397696560652e-07,8.315224537754366e-07,1.4880705639716586e-06,8.526227753284905e-06,-1.672692839798207e-05,2.4814138543341165e-06,-3.4741778680515833e-06,-2.332462048560305e-07,-1.426517686031911e-06,5
-2.0765098469416896e-06,-2.3168063904435294e-06,1.216303949195874e-06,8.927411091056024e-07,5.333642844361797e-07,3.859147147887891e-06,1.055323854799777e-05,-8.604947855036624e-06,3.4382053357668333e-06,-7.760869413934035e-06,-6.06456324561127e-07,-3.6852005580408588e-06,5
-1.7658638152717922e-06,-1.0400755316313647e-06,-6.4118146205118e-07,1.8164935026058694e-06,3.3891160121854116e-07,3.342278608874349e-06,1.0519245953767292e-05,1.9777479995745787e-06,3.497068048932358e-06,-1.2756445918840757e-05,1.760682700984123e-07,-3.5109996837795098e-06,5
1.1572607933635951e-06,1.6123898329660267e-08,-1.4815546011197394e-06,2.6841843364783263e-06,-4.894056844838335e-07,5.313329615382796e-07,4.1011463976102585e-06,1.2212656366697648e-05,2.465098674830812e-06,-1.3095761375146387e-05,-2.7406043714324095e-07,-1.2544742475684102e-06,5
4.291499277534761e-06,4.1177408746281747e-07,-1.7043916216637462e-06,3.4928722903625044e-06,-1.3002377476204153e-06,-1.5847007624333785e-06,-5.927251115150785e-06,2.0215842046578988e-05,3.8498116985175653e-07,-8.824153363696431e-06,-1.8460910241978741e-06,7.159256349419107e-07,5
4.456907075708466e-06,2.8539282872660273e-07,-1.6388452712378408e-06,2.366979790270082e-06,-1.7979989714663174e-06,-1.6567824569491951e-06,-1.1501539608377465e-05,2.3287344221364495e-05,-2.682318430629965e-06,-3.768035567545301e-06,-8.413988266648931e-09,2.100544576975172e-06,5
1.1967425398720087e-06,-3.4601643907187135e-07,-1.5352679769178555e-06,1.262174754503707e-07,-9.369544545059093e-07,6.17414563461514e-07,-1.067721727935536e-05,2.0728607971893548e-05,-5.535587188979317e-06,-8.136524882845671e-07,1.7711299664130327e-06,2.328686526934424e-06,5
-7.492457672185699e-07,-8.896997051169678e-07,-2.257494193998062e-06,-1.2810304068455609e-06,1.288054386970216e-06,1.8544901089165266e-06,-6.737895786842313e-06,1.4197777360683206e-05,-5.297774850115277e-06,-4.6096530190811083e-07,1.161294421214345e-06,1.1178305059307106e-06,5
1.0624351544608012e-06,-1.4568621037304617e-07,-1.6663531343725934e-06,-1.621169898376714e-06,2.0003616807520707e-06,2.707816606222876e-07,-3.5385860871167367e-06,7.294857823522497e-06,-2.285689754436593e-06,1.4676272664415512e-06,1.4293127254861176e-06,-9.844870025530212e-07,5
3.0348295988409434e-06,1.865573385073281e-06,1.1365761722180121e-06,-1.551529023401247e-06,1.683981465618408e-06,-1.6550771326557726e-06,-1.5669585177769378e-06,1.4583066122733705e-06,1.8554529388400763e-06,3.90974481094324e-06,1.6895003006913e-06,-2.3969822327945372e-06,5
4.3552003572386466e-07,2.989694830483703e-06,3.2878302983125082e-06,-1.6539360309245612e-06,1.6376632644524223e-06,-3.602229276557717e-06,1.3141824859522962e-06,-4.290611606951754e-06,4.931910256290618e-06,2.7981145400641036e-06,7.019618459607138e-07,-2.211164959666523e-06,5
-5.294500148759718e-06,1.5498741009963903e-06,4.932837725278695e-06,-1.9152180457906625e-06,9.037266785570931e-07,-3.9853757255699e-06,4.840872744385034e-06,-6.388007269966839e-06,3.4600163905829245e-06,9.98638926571544e-07,1.7838175248363457e-08,-2.266617069877899e-06,5
-7.926521715066898e-06,-6.211176047697447e-07,5.729664376939517e-06,-1.3794014990991625e-06,7.264945885041542e-07,-1.6321543254030797e-06,8.328427635088716e-06,-3.1480169044590085e-06,1.1409078800690062e-06,-1.1673980149149769e-07,-2.2544994244875893e-07,-1.6255037740170928e-06,5
-6.97802445230799e-06,-1.1262929325226177e-06,2.909971372940126e-06,-4.284866256862846e-07,1.3835377196617173e-06,-4.999811827948905e-07,9.648385059124836e-06,8.689013957944804e-07,1.4938177975083266e-06,-1.635186250208545e-06,-4.953935727327819e-07,6.106594374548498e-07,5
-4.512770434472916e-06,-5.308848668705994e-07,-8.744691003567597e-07,-2.9900536196035043e-07,6.445537355598552e-07,-7.913654221435643e-07,6.580918549367915e-06,3.139209523114177e-06,1.3084717473566584e-06,-7.856330483508369e-07,-1.042939344150936e-06,7.458693135612956e-07,5
-1.3608925250061758e-07,-7.371594491683021e-07,-2.0601459713532627e-06,-2.443497061033621e-07,-1.427897697009504e-06,9.949742742429691e-07,3.2375053759626216e-06,1.9478808725005623e-06,-1.3961381733129443e-08,2.3799870418289725e-06,-2.034868372141041e-06,-7.567932257954534e-07,5
3.6672704065474895e-06,-2.3123336084510923e-06,-1.9040656395269365e-06,3.623211179979325e-07,-2.4553489752523967e-06,3.5207603010570952e-06,7.166185160511581e-07,-4.336871787400843e-06,-1.5274369376349016e-06,3.182530125951567e-06,-2.7374594981211633e-06,6.227773563081463e-07,5
4.316364712877583e-06,-2.9625933014029717e-06,-2.1456165637809744e-06,1.2312151841673017e-06,-1.8268545907610922e-06,3.7067394915985446e-06,-4.547602588578278e-06,-1.316437217740198e-05,-2.306996516252868e-06,2.070430689982347e-06,-2.572015790284584e-06,3.4499828724359985e-06,5
2.850169412331432e-06,-1.345846457043572e-06,-2.738851162074734e-06,1.8162060898252547e-06,-1.5463478819123105e-06,2.3765717965808715e-06,-9.464872656164823e-06,-2.3860635948960835e-05,-1.4574222411518462e-06,2.697064831005897e-06,-1.7923689431395185e-06,3.2030086902724177e-06,5
2.4377245239226748e-06,1.058416184659949e-06,-2.28331683691133e-06,1.1810204622047106e-06,-2.365503601905703e-06,1.6138336525972065e-06,-1.0769196263593944e-05,-3.4783370506297506e-05,-1.0681156991491132e-06,2.601349565890524e-06,-1.182061869570962e-06,2.1984720636198348e-06,5
4.56115692601899e-06,2.9082542260043575e-06,-1.6638015780364636e-07,-4.3638542990052916e-08,-1.9174176707869855e-06,6.418259839709937e-07,-1.0716261727940704e-05,-3.585465719228724e-05,-1.6678155099268366e-06,5.041570448047049e-07,-8.55398598336154e-07,3.7067869692731667e-06,5
6.2298569783721844e-06,2.760676494025107e-06,1.6870885543673829e-06,-1.1718015806185654e-07,9.56692470480033e-07,-1.2101384422793148e-06,-1.146242020814069e-05,-2.3077316495832685e-05,-1.0032305268010594e-06,5.8965122711654416e-09,1.9243515473856846e-07,3.662192494199015e-06,5
5.5716645198691e-06,1.2921794457028658e-06,8.431092379064015e-07,7.768216909915506e-07,2.5657962582877835e-06,-2.17207745911952e-06,-1.0733454382125096e-05,-4.977997898837225e-06,1.0291606094648334e-06,9.053993325816501e-07,2.211121761019879e-06,1.3176346639846838e-06,5
3.1629123988552666e-06,6.771153892487622e-07,-1.8837511119702899e-06,4.0786626873143886e-07,1.6306729759416163e-06,-2.049596559555432e-06,-4.480298201565563e-06,1.1289934582402244e-05,1.4007570870073828e-06,1.909154785500048e-06,4.486277378424476e-06,3.005873786629352e-07,5
3.9315237132842127e-07,7.575531628228815e-07,-2.950177547264981e-06,-9.724652703179256e-07,1.7002987350089542e-06,-1.3492776894225284e-06,3.765992535786613e-06,2.3556670201002845e-05,-2.207411127601756e-07,2.615777587941484e-06,5.855227027028115e-06,-1.613569302111903e-06,5
-1.1887203282280066e-06,6.643972084652485e-07,-1.8159534650663707e-06,-6.081313159990202e-07,2.1877726133105643e-06,4.839982890761596e-07,8.686938472875039e-06,3.2134225387037885e-05,-6.52616872518941e-07,3.04632475380622e-06,4.997631187681023e-06,-3.931661782416148e-06,5
-4.541319649968803e-06,-3.070173926009004e-07,-7.6824312897299e-07,8.462736450403784e-07,7.052135860634575e-07,1.248350547151596e-06,1.0182218179389696e-05,3.730845795362453e-05,-1.0902655762357628e-06,5.068800751084918e-06,2.0728249559524317e-06,-3.2784928870991996e-06,5
-1.023312319604605e-05,-1.4075287958776094e-06,-5.018785567116618e-07,6.412497047778329e-07,-1.71314084577301e-06,-6.232953352183091e-07,9.024677238366434e-06,3.707741967504423e-05,-1.7703303909528137e-06,5.935792329747775e-06,-5.337626609413659e-07,-3.4275706280630237e-06,5
-1.1826189977819082e-05,-1.5145445662639807e-06,4.078985490679638e-07,-9.208332516640321e-07,-1.9736107337067566e-06,-2.2422314168909304e-06,7.91987319423489e-06,3.248436066141647e-05,1.2560507531239924e-06,3.481692773836734e-06,-1.415814566937301e-06,-4.704128951487547e-06,5
-7.966057335711755e-06,-2.1576672894978817e-06,2.982299825375494e-06,-1.41495682545254e-06,1.1237099094727462e-06,-2.127982317153406e-06,7.188279676518125e-06,2.5605523147872214e-05,4.321206834763308e-06,1.3817730553347053e-06,-2.4294993241694137e-06,-3.3704454167501052e-06,5
-3.8039722650869246e-06,-3.6191321468239205e-06,5.072341646096842e-06,-2.713477123184224e-07,2.529878217110268e-06,-1.400668204747967e-06,5.091137470487787e-06,1.6041921257464433e-05,3.355228287314485e-06,-4.415812365823768e-07,-3.4908322157461024e-06,-1.7896552540152084e-06,5
-1.7349573759029066e-06,-3.7447595684002167e-06,4.613583220079922e-06,6.134745012210458e-07,3.3078514541706344e-07,-8.850758213744251e-07,3.765769227997008e-06,5.392465640924559e-06,2.1994922313000366e-06,-5.347416209950138e-06,-2.7211476266362584e-06,-1.3299684254891923e-06,5
-5.284834721159793e-07,-2.090588245164356e-06,2.667035790929011e-06,2.1231747441320743e-07,-1.1101023339693533e-06,-9.234260863772838e-07,3.7038564238453616e-06,-7.346216399786049e-06,1.5211040499206913e-06,-1.2768871898247812e-05,-1.8826540536033438e-06,5.957417012159464e-07,5
1.4082275771401989e-06,1.44288841818363e-08,1.0666320873877595e-06,-1.3719115923293771e-08,-1.7860243038241077e-06,-2.689058460237959e-07,3.265355612204503e-06,-2.300586891575808e-05,-2.8912461978303364e-07,-1.8204036528971583e-05,-2.566970115475549e-06,3.5960612244402315e-06,5
4.785346060284637e-06,1.8058224363711343e-06,3.970886358655399e-07,1.01480758691898e-06,-3.3674762528797337e-06,1.6144394165431461e-06,2.035022398596113e-06,-3.478187882655411e-05,-2.3566725023081178e-06,-2.0614425588618603e-05,-2.7477867382464257e-06,3.5717792617244595e-06,5
8.236091023669119e-06,3.4183801692659625e-06,-1.152286552715283e-06,1.1612243057352637e-06,-4.320304894578189e-06,3.008392448914324e-06,1.6061155045146937e-06,-3.859446654284111e-05,-4.498576176776203e-06,-2.1003094762077334e-05,-3.880280726716495e-07,7.714959439880224e-07,5
9.706127324994262e-06,4.742983845699386e-06,-4.212347419568809e-06,-8.339853763664706e-07,-2.790212237280218e-06,3.3874019024300927e-06,4.03755432051909e-06,-3.1574782053495245e-05,-5.600497008704279e-06,-1.4115853474158466e-05,2.0619837762207354e-06,1.9115811978737743e-07,5
9.956618449722982e-06,5.02240414170706e-06,-5.50816221132057e-06,-1.7043672337249698e-06,8.440421552941685e-07,3.5493786427626537e-06,6.212140605630727e-06,-1.1912656557176084e-05,-3.887367193038815e-06,9.491401429171534e-08,1.129027028017634e-06,2.101076908796147e-06,5
9.616540757000817e-06,4.096525653336166e-06,-2.909744500433637e-06,1.565373034384481e-07,3.510684234425741e-06,3.864598082245911e-06,3.6718063934124186e-06,1.8957079421800393e-06,1.6434478013223378e-07,1.1820475343397765e-05,-5.986888536723765e-07,4.025724015711887e-06,5
6.3332835864341785e-06,2.669248098467726e-06,1.2586346283216052e-06,1.3512356824808275e-06,3.7784167135617595e-06,4.0732537245879636e-06,-3.04118354911203e-06,-9.292672771953199e-06,3.504630083082294e-06,1.6490529464918245e-05,2.625576466168055e-07,3.922865956484103e-06,5
-5.072724631138892e-07,8.888891650499332e-07,3.4167922052590566e-06,-1.2633907703222822e-07,3.1976474723966096e-06,3.0766115731735645e-06,-1.1227803609935116e-05,-2.5342592134792952e-05,4.140149891213506e-06,1.7757373297479428e-05,2.440826925911128e-06,1.6915936239096756e-06,5
-6.688639056074371e-06,-6.074214025557422e-07,2.788861296056319e-06,-1.5965236720613514e-06,3.052281724891354e-06,9.003545937433549e-07,-1.7823080110962984e-05,-1.1500904699816728e-05,3.811847407352903e-06,1.9603684686476978e-05,3.4797335640694102e-06,5.770923862084923e-07,5
-6.358945561344304e-06,-6.249340903329393e-07,6.645204511434844e-07,-6.730486990079036e-07,3.0139567109474573e-06,-4.1884790451191504e-07,-1.8421463651874176e-05,2.477490115660113e-05,3.6580602240307662e-06,2.0227121434641102e-05,2.326207005331309e-06,-1.0313524480281832e-08,5
-7.323770697017356e-07,-6.701531440253649e-07,-1.2422123919468332e-06,1.0408157772683784e-06,1.6697026263805913e-06,-1.352025232608823e-06,-1.3216853309633294e-05,4.567162011029058e-05,2.882190873509362e-06,1.6099172002787382e-05,2.0790665180875748e-07,-2.2660262814304295e-06,5
2.6540515237799796e-07,-2.6384276987622868e-06,-2.1050607699267797e-06,6.156250833386502e-07,-5.591133964766717e-07,-4.303496097407281e-06,-9.729452120962386e-06,3.8344522367402965e-05,6.465641950196204e-07,8.470953517312097e-06,-8.463251331560291e-07,-4.81482241620147e-06,5
-6.467819029235923e-06,-5.11758162268433e-06,-3.4043471386292094e-06,-1.6638628066711887e-06,-1.8796845374347707e-06,-7.302102000918764e-06,-9.985803537954e-06,1.7958257497036788e-05,-3.0201968841069185e-06,-4.1015918517407223e-07,4.268551473006646e-08,-4.650813563191348e-06,5
-1.104435242488858e-05,-6.210277935163627e-06,-4.435304848489689e-06,-2.2243601835114617e-06,-2.9128778375972112e-06,-7.867961537928881e-06,-7.1514147706948125e-06,-4.740443060628164e-07,-5.86305401957002e-06,-7.824633293613364e-06,1.1923725503257926e-06,-1.3911114747650055e-06,5
-7.064780177074814e-06,-5.27307508807281e-06,-2.6596094451748803e-06,-2.2546900048869846e-07,-4.0282524742592296e-06,-6.9281505349356465e-06,1.4113387730636267e-06,-1.0932332040573588e-05,-5.8889791035674206e-06,-1.0335130355346385e-05,-1.434060683508154e-07,1.38473712847028e-07,5
-8.879567801631268e-09,-2.980152829132264e-06,5.608579423261472e-07,1.5996137466863084e-06,-3.6530252706777653e-06,-4.111974703577126e-06,1.0332660847061422e-05,-1.636014948100566e-05,-3.3475361153071608e-06,-8.40471959902289e-06,-2.417917288741626e-06,-1.1370594805658886e-06,5
3.2117933728881344e-06,-8.995370050272436e-07,3.467053462317063e-06,2.1135726144322167e-06,-2.0473628217698854e-06,-3.840250767353461e-07,1.3975983595372658e-05,-2.1586760897353872e-05,-3.3487377648573964e-07,-5.065241606277216e-06,-2.5989954355573435e-06,-1.8160890300334969e-06,5
2.350086080028478e-06,1.0073485916509466e-06,5.153462644067165e-06,1.8822632417562248e-06,-5.601663884226406e-07,1.2890954278187246e-06,1.313405579109894e-05,-2.7165730505936288e-05,7.964579870993612e-07,-3.1300653627970794e-06,-1.721816330229065e-06,-7.183170562625309e-07,5
5.158084140145866e-07,2.3581172152220973e-06,3.838358818852555e-06,1.5199881022963966e-06,2.9115699370797017e-07,1.6682015266611497e-06,1.0593014234265476e-05,-2.9200131786314058e-05,6.888558062295434e-07,-4.085139368771703e-06,-9.403979685658001e-07,2.098198004627709e-06,5
-8.468888262197349e-07,1.8951657046466353e-06,1.5600205152933441e-06,1.1807589254739422e-06,4.4803048878382734e-07,2.2243644838955716e-06,7.012630045998417e-06,-2.2425343282817184e-05,1.0592086767428067e-06,-6.2515670631500706e-06,6.329919641963481e-07,3.7981909232094913e-06,5
-1.4587301851163072e-06,1.504894679589992e-06,6.73372926022475e-07,8.761640852814467e-07,3.399873730783541e-07,3.7507055169636614e-06,5.350062777317266e-06,-9.87785482020922e-06,2.0996092332328016e-06,-6.0981950704845905e-06,1.3995444793562587e-06,2.581355466222423e-06,5
-1.6016222468384274e-06,2.7568753901079837e-06,-6.587734807454978e-07,3.2437770751255937e-07,5.072771148628139e-07,5.6450930506926895e-06,6.2392563313142e-06,1.8015003719744638e-06,3.719197654051026e-06,-3.2594999626009304e-06,4.899303445475694e-08,7.782642286560906e-07,5
-2.1639562335942215e-06,3.095341892043103e-06,-2.453435325159008e-06,-1.5000185696942176e-06,1.180229712433532e-06,4.271141402516784e-06,5.2028187829907746e-06,1.1171588035940554e-05,4.534833773325244e-06,-2.0958322152423725e-06,-3.076342031991375e-07,-4.1811527285609397e-07,5
-2.3825944148209703e-06,1.2978549645743504e-06,-2.898416211485175e-06,-3.0907992918036727e-06,1.4815102284674959e-06,1.327137971451145e-06,8.497739768093054e-07,1.885909427236995e-05,2.74949389126692e-06,-4.211213798013574e-06,2.8910911545755014e-07,-6.251755704557923e-07,5
-1.203983734559132e-06,2.437816753391495e-07,-1.6951328639184886e-06,-2.68485947256079e-06,9.691433136767866e-07,1.0599450418259258e-06,-4.216576848654077e-06,2.7829056104217674e-05,-3.893653039128213e-07,-5.486615498018903e-06,-3.462742008764906e-07,3.658863900063918e-07,5
8.834560936529821e-07,1.1734461489973506e-06,5.808737047268745e-07,-1.6199771140299658e-06,3.9794198495137356e-07,2.0730938279104476e-06,-7.159231644798723e-06,3.8876476912016645e-05,-2.1167971634867223e-06,-3.648778548806368e-06,-2.5652859596084206e-07,9.018453967839042e-07,5
3.773304771795918e-06,2.31870248869913e-06,2.112803364572676e-06,-6.102917427158439e-07,2.4401029197908845e-08,2.788953836743686e-06,-5.7928225243772005e-06,4.918355561735187e-05,-1.575394435640637e-06,2.706616353050721e-08,5.943931309002403e-07,4.7913640573682186e-08,5
7.020417314792264e-06,2.941033069987501e-06,2.0898386460729453e-06,-4.103097276450636e-07,7.415756997785671e-07,2.218737375028461e-06,-1.1824403156638285e-06,5.387151833485348e-05,-2.2961324720637945e-07,4.034148306770295e-06,1.2843135328068773e-06,-6.568802239346216e-07,5
9.748347592686705e-06,2.2214812770917743e-06,1.7024621575609313e-06,-8.08506017076041e-07,2.1334595658914473e-06,-1.1083936171637715e-07,2.0651984905794425e-06,4.446131127823941e-05,3.7360458793494494e-07,6.098493947914772e-06,1.8229004503033844e-06,-1.127242637621111e-07,5
1.1201217218075226e-05,-3.851924937413578e-07,1.5895275723017962e-06,2.73590106821455e-07,1.9598830827336245e-06,-2.0090668562524014e-06,1.7195183675026497e-06,2.206126032001811e-05,4.1512074691495867e-07,5.216042306401607e-06,1.2050914245411907e-06,4.1119363684403633e-07,5
7.689173149909795e-06,-2.87170656077406e-06,6.852621459397909e-07,1.5559692517979749e-06,1.4445542959760295e-06,-2.5626062103662813e-06,-1.6199551732753057e-06,-8.590999612954945e-06,-2.127700773401377e-07,4.0780471275944665e-06,9.543064670090581e-07,-3.4082284670392165e-07,5
-7.883809807025918e-07,-3.698154894900332e-06,-1.9579242228354298e-06,1.6054589902297768e-06,1.938500743626375e-06,-2.0981781606873715e-06,-5.271606607107607e-06,-4.674609957801618e-05,-1.8464563716977642e-06,4.925799853479385e-06,8.079686624678093e-07,-1.2005007901666653e-06,5
-5.3605439381935365e-06,-2.7046628472750487e-06,-4.0015958423369115e-06,1.0833267177587741e-06,9.664333689454178e-07,-1.3175907470579113e-06,-3.446310784484546e-06,-7.110319882363784e-05,-2.714527085624081e-06,7.121441844470598e-06,-6.119344473843538e-07,-1.2029254130126218e-06,5
-4.545615863932098e-06,-1.6807182787842499e-06,-3.853098048185929e-06,1.7847689416284426e-07,-1.518588781588428e-06,-1.7579857942904093e-06,1.5016921592337832e-06,-6.184105112744647e-05,-1.9008415468216722e-06,9.247569936244166e-06,-1.7777167319374293e-06,-2.058954410975486e-06,5
-5.700039872408419e-06,-2.418004510050932e-06,-2.8367840501701156e-06,3.536026344215273e-07,-2.4399467460246454e-06,-2.714165233810917e-06,2.103216184000109e-06,-3.880956422073425e-05,-5.544514578846261e-07,8.826181808876275e-06,-2.5503860883863687e-06,-2.7972624261530137e-06,5
-6.671922452537488e-06,-1.5282901469409127e-06,-5.947522401966152e-07,1.73937069413832e-06,-1.552776573808491e-06,-2.3819163083427103e-06,6.735794007068897e-07,-2.8450366601511376e-05,3.3974971640201797e-07,3.484742190318108e-06,-2.412039501377344e-06,-5.760830922155651e-07,5
-3.488467091659549e-06,2.105117868061292e-06,2.1944334005293894e-06,2.280858893076646e-06,-1.470197682236203e-06,-2.0106005262646142e-06,-4.160883505840368e-07,-2.9947434151425236e-05,-2.1265232563451604e-08,-4.608119676819633e-06,-1.111743528198545e-06,1.526930127416445e-06,5
-3.9255493048610516e-07,3.3720388413560815e-06,3.5837866467432582e-06,1.187052287150483e-06,-2.9843251725267022e-06,-2.219347909631973e-06,-3.2999841888554596e-06,-2.6005428176429536e-05,-2.9342933026768846e-07,-1.0349672214930836e-05,1.5607572503502149e-07,5.748818092020906e-07,5
1.8375523671107793e-06,1.0202214168085573e-06,3.6781991268345437e-06,-6.749028639296231e-07,-4.263931560618384e-06,-1.0183338892329591e-06,-5.369148385812094e-06,-3.7500372058392935e-06,8.743267570084316e-07,-1.212812744105593e-05,1.3857221890808265e-06,2.6687808658254226e-07,5
3.513627881710335e-06,-1.4509454222414878e-06,2.1814412105272418e-06,-1.6035070064801821e-06,-4.4336262768510405e-06,4.166712486803888e-07,-3.5992933399943177e-06,2.9934756132871134e-05,1.5027701026800825e-06,-1.1078483644461122e-05,1.628359808557397e-06,2.348090340364162e-06,5
8.149696380620202e-07,-1.9539488102619766e-06,-6.976190710497597e-07,-1.7780336230518114e-06,-3.0337432502412213e-06,7.772214545989801e-07,3.085119184174262e-07,5.649389546284516e-05,1.1993341364162348e-06,-6.838832656581338e-06,5.717262192292813e-07,3.108616015719971e-06,5
-3.643853524660363e-06,-7.261033244113582e-07,-3.7204203780833235e-06,-1.7310453303900863e-06,3.4256491153915707e-09,2.157074853806979e-06,3.1398340943853752e-06,6.500226390624954e-05,5.944896150667346e-07,-7.972242912702972e-07,-6.899273810598624e-07,1.6139971413119902e-06,5
-4.103101792087581e-06,6.488048401851405e-07,-5.5683639439613325e-06,-6.812268609084552e-07,3.0311410910787946e-06,4.0318235702069766e-06,4.012169962005379e-06,5.5589401245981766e-05,-3.7306620440198896e-07,2.6618677491827076e-06,-1.5560006179809497e-06,1.0954523328941765e-06,5
-1.79349280178572e-06,1.0042852161357821e-06,-4.029239574471683e-06,7.260856541499759e-07,5.606710493127903e-06,4.329609460290808e-06,3.341463885506234e-06,3.365231795872598e-05,-1.689704247281176e-07,3.1755287488760824e-06,-1.2646322548087532e-06,1.8396120077256652e-06,5
5.4388457718696776e-08,1.1076484734080954e-06,8.07128277773775e-07,2.0228290680455237e-06,6.424852411946615e-06,3.326611260715959e-06,1.1848629256292006e-06,4.668617923225444e-06,2.2368488914358654e-07,3.554903814798911e-06,1.5861179324467739e-07,1.001504127157472e-06,5
-4.5366432989154663e-07,3.25343841450706e-07,5.299325301336444e-06,2.257890974346955e-06,4.01779555295276e-06,1.1803793431910581e-06,-5.330431330662423e-07,-2.6787685611658205e-05,1.1607948599179633e-07,3.0933502020704192e-06,1.7955299734483602e-06,-1.6239520015039616e-06,5
-3.637982832958174e-06,-1.6935923169884593e-06,6.758375020376527e-06,4.1783312318759083e-07,7.215432833999255e-07,-9.75138319573768e-07,-5.087073549448552e-07,-5.3577809780384667e-05,1.2935689188480599e-06,1.6582792183340578e-06,2.4585316689310865e-06,-3.160069119018718e-06,5
-4.735054701863706e-06,-8.218787469465087e-07,5.979951857978478e-06,-9.580309389263933e-07,-1.0398448411832866e-06,-9.111279364985158e-07,-1.3593661193401976e-07,-6.457025369113823e-05,1.425627712398845e-06,2.6474851873404156e-06,1.5985919295478957e-06,-2.213481342492678e-06,5
-9.497082146384845e-07,1.9615579275910794e-06,3.935316730734473e-06,-5.581026701859745e-07,-5.054371777575318e-07,-1.8179212384727685e-07,-1.5043417530671903e-07,-4.99521136161413e-05,-1.9118533464271811e-07,5.415889142711e-06,8.156133063113376e-08,-1.1696778009564285e-06,5
3.1946497601729395e-06,2.0000989620201373e-06,5.71341728950681e-07,-9.106481227721686e-08,-2.785787597563752e-07,-1.1529046904968622e-06,-1.497839648079575e-06,-1.5187492514791793e-05,-7.968485305392435e-08,5.407130576604513e-06,-7.243784643868273e-07,-2.076824034412573e-06,5
4.458997841650865e-06,1.012970442528515e-06,-2.808695426405794e-06,-6.128902175920412e-07,-2.346887434718727e-06,-3.2294478445600644e-06,-4.2360674123548915e-06,1.694630242680039e-05,6.570039643350943e-07,3.3217390489946336e-06,-5.615264640239534e-07,-2.9108812492133236e-06,5
3.4571984307101225e-06,-1.423791635668703e-07,-5.152300049113115e-06,-2.02413958905753e-06,-2.8277526705249473e-06,-4.794692102364787e-06,-4.075970481480023e-06,3.2768475753846565e-05,-5.234342837229766e-07,2.448292901839878e-06,-7.072067713164828e-07,-1.3405796584226991e-06,5
2.0359873847451193e-06,-1.6399135595474202e-06,-5.879399510397819e-06,-2.885619716794667e-06,-1.7026130873877305e-06,-3.4927476532267825e-06,2.585172387352994e-07,3.6834757393824524e-05,-2.0390797542764886e-06,4.216217456193468e-07,-9.083964744050192e-07,1.529571263346696e-06,5
2.350595232267086e-06,-1.6080510138865947e-06,-4.770655487529543e-06,-2.6075743051598445e-06,-1.6782774754063298e-06,-1.6774028487498484e-07,3.2161931034356924e-06,3.274545946465279e-05,-2.237463936433088e-06,-4.5300103118741165e-06,-1.8846487771749545e-07,3.1504055035484633e-06,5
3.3055101374464704e-06,-8.821792652552101e-07,-4.080499474824481e-06,-2.250713835437255e-06,-6.422147518106257e-07,2.0997511561615436e-06,2.240346988638326e-06,2.3265222978823555e-05,-1.7447297896590661e-06,-8.118447503560954e-06,5.914580977204381e-07,2.5987521773477698e-06,5
3.441560722683717e-06,-9.954069467583163e-08,-4.114751715246478e-06,-1.921740044906801e-06,1.263444302539438e-06,3.2544254766387956e-06,1.6582872696003763e-06,1.43007368283142e-05,-1.2020186719675121e-06,-7.547415296084959e-06,7.77964073013319e-07,1.1012577454618374e-06,5
2.8913454340368646e-06,8.931378853912811e-07,-1.4704571875099718e-06,-1.1673805582427794e-06,1.6452503029891008e-06,2.4750733912449263e-06,3.2137671479781714e-06,8.760106006531138e-06,-2.052335506526875e-07,-4.842565867295988e-06,4.985944924180368e-09,5.461756513539755e-07,5
6.903980039862568e-07,5.723086861030383e-07,4.056769506110805e-06,-2.754641553217993e-07,7.373430766212067e-07,1.0011598980971578e-07,1.9150653660549877e-06,5.280380036744765e-06,9.290175214900476e-07,-2.5819083749329296e-06,-8.076324251955404e-07,1.3501400418872665e-06,5
-1.3668078298529538e-06,-1.258350057743385e-06,7.57152500541841e-06,6.02261369949008e-07,-9.006433183136117e-08,-8.945399272531846e-07,-2.5549200883518413e-06,-7.188439908404595e-07,6.188474168030128e-07,-1.8578859238895285e-06,2.182974563247107e-07,1.659356852428148e-06,5
-9.95885718037123e-07,-9.129463920560794e-07,5.664100087337815e-06,2.100243861105945e-06,4.5775929657338607e-07,-4.0920375912915745e-07,-3.497751338744653e-06,-1.1137555775004867e-05,-7.560604230732651e-07,-1.6049633811439045e-06,1.598481535359224e-06,6.909559411451029e-07,5
-5.11414287483301e-08,2.8739167323300513e-06,1.0068081762278979e-06,4.233969991622732e-06,1.4781718755452055e-06,1.0423229088195417e-06,5.409944310513545e-07,-3.0440586453534653e-05,-7.097585537470341e-07,7.301129107950243e-07,1.2611513683086295e-06,-3.004447361074927e-07,5
4.5855724904237915e-07,4.8707337081946055e-06,-2.70628250560266e-06,6.297083940566904e-06,1.836081728015809e-06,1.8820221628136968e-06,4.3916804096725495e-06,-5.434909812288815e-05,1.1873941319863667e-06,4.642252610145595e-06,1.8010320435985947e-07,-1.7495360153346325e-06,5
1.3623679995706432e-07,2.5619934671363616e-06,-5.007072239054097e-06,7.301201079525721e-06,2.4707042870209754e-06,5.893881193685817e-07,4.973318384708902e-06,-5.363523631052695e-05,2.849757903986746e-06,7.1848781294671406e-06,-6.436833923998335e-07,-3.548212400384621e-06,5
-2.8411554672614997e-06,-1.7517840362780833e-06,-5.223458652763586e-06,5.558428060974145e-06,2.0421708643485717e-06,-3.0405469625653225e-07,3.6915523144318805e-06,-2.1919679630617624e-05,2.0829827511608545e-06,7.192564953357439e-06,-1.4810133502403962e-06,-3.974362026618095e-06,5
-6.706809309844709e-06,-4.5750590698586975e-06,-2.054055397501157e-06,2.138959044711598e-06,-5.046311778757637e-07,-4.405085221851475e-08,1.4952223103517346e-06,9.625051951386791e-06,1.7485215590147407e-07,4.5953921601975785e-06,-2.119844120730174e-06,-3.2765483986419857e-06,5
-6.648756425462604e-06,-3.3418761885017605e-06,3.2415527127190543e-06,6.649877088938301e-09,-2.129880659644256e-06,-4.683162758200627e-10,-5.164950065490595e-07,2.663355424400604e-05,1.0099381003768505e-06,4.0409654442192377e-07,-2.3369902663166013e-06,-1.2064061211327022e-06,5
-2.8868068611635013e-06,-1.4580258786448054e-06,7.021597392827431e-06,-1.513520228536561e-06,-2.3031887790310157e-06,-8.180463146027061e-07,-5.227242047296973e-07,3.573115113955465e-05,3.6361053969806104e-06,-3.971454464834368e-06,-2.3999339958500114e-06,1.906181750621037e-06,5
1.3187390585458886e-08,-2.090221902213656e-06,7.5433918435516825e-06,-3.5582431718935127e-06,-3.355009376570626e-06,-1.9966881835709043e-06,-2.361114017377269e-07,4.107282978149816e-05,3.964756413982839e-06,-6.439914557803665e-06,-1.2507045640085233e-06,3.508292674790562e-06,5
1.6969909764926787e-06,-2.331594621908472e-06,6.023318709135458e-06,-4.606409677418833e-06,-4.152932804844391e-06,-8.445533896143116e-07,-7.163309571356665e-07,4.056349819841438e-05,1.140996462040582e-06,-4.0882498237203245e-06,1.0499061507946837e-06,3.0800261632478265e-06,5
3.610592871141608e-06,1.8364827018338438e-07,4.0503713893665735e-06,-4.191797200640167e-06,-2.4878129596092037e-06,1.8532939048828044e-06,-1.094179307032715e-06,2.993199626482865e-05,-2.2764284093481817e-06,9.15338336341002e-08,1.8834372305366667e-06,1.3690438943872456e-06,5
4.6906989483213455e-06,3.1997379561726085e-06,2.9545625260437428e-06,-3.951193657680754e-06,-1.1312469100683086e-07,2.676569438069764e-06,-1.7548446219310746e-06,1.4573218744302747e-05,-3.613697590998643e-06,4.8671468166513e-07,1.1889516064535861e-06,6.214817955624002e-07,5
3.792842291959762e-06,3.4731863961718717e-06,2.024693598704048e-07,-4.781553325867168e-06,3.0826847954679273e-07,1.5696050197114775e-06,-3.7717572648146517e-06,1.4300049477328505e-06,-4.724753306741555e-06,-1.2228529116722944e-06,1.4030496787761375e-06,1.6400028392882927e-06,5
6.513504892797068e-07,1.7442315476227187e-06,-5.902800336894762e-06,-4.987594659044151e-06,8.396097118520994e-08,-5.246374999759092e-07,-7.626860575409412e-06,-8.623789223835585e-06,-6.248709511814352e-06,-1.0438909676897362e-06,2.6000865999119433e-06,9.008955957334167e-07,5
-1.1891857679786078e-06,7.533080921038131e-07,-8.835790561781795e-06,-2.960716138887696e-06,8.984820873985321e-07,-2.3431837148126564e-06,-8.49817985539073e-06,-1.2917376421062528e-05,-4.12216817840414e-06,1.2995721617611581e-06,2.600656116167799e-06,-1.1353615037124135e-06,5
-2.732256106318834e-07,1.5007576484665678e-06,-7.180628966194746e-06,-2.5848920952058165e-07,1.5437058582885486e-06,-1.7810244446619344e-06,-3.297091648132978e-06,-1.1824913618852563e-05,1.1249200506820992e-06,4.434202163766005e-06,1.3914949075985224e-06,-1.7160055032546604e-06,5
-9.041866251236757e-07,2.2103354511753475e-06,-6.698051355793751e-06,1.1581466608034085e-06,1.6542401048884175e-06,-1.5944854331302433e-07,1.3246560623407686e-06,-1.0588605132802736e-05,4.817385816776723e-06,5.370716519393209e-06,-2.7885728798457072e-08,-1.1624251085001777e-06,5
-2.0792205383051666e-06,5.739567422541859e-07,-4.864871273443745e-06,2.065211242366896e-06,1.6372814586727134e-06,-8.57896476163122e-07,1.4026183478517082e-06,-1.4373868109853584e-05,3.5726167960434255e-06,3.0192985288743233e-06,-2.2883086003200917e-06,-2.1875231073799507e-07,5
-1.4019670288422393e-06,-6.148990623055153e-07,1.9291979901428934e-06,3.4977263536720094e-06,1.1106143406460548e-06,-1.8802075052883468e-06,7.355584932710424e-07,-2.3593914538864847e-05,-1.2149643267296645e-06,9.784588264195214e-07,-2.6745817204724516e-06,-2.973819731326762e-07,5
1.4959847829559814e-07,1.4665516220552658e-06,8.046585267379916e-06,4.603621473240567e-06,9.868517559560324e-07,-4.6546649196768504e-07,1.8551668206931622e-06,-3.2616768811297225e-05,-3.0080249161277317e-06,5.337634028161972e-07,7.877455656477229e-08,-5.146926455004296e-07,5
2.0224102789996227e-06,2.536587085144537e-06,8.480624858636723e-06,4.539247885641089e-06,2.25186296432051e-06,-1.5365743406938973e-07,3.5034021183961785e-06,-3.894146532372576e-05,-6.841721633765662e-07,-2.3101192709619277e-07,6.658918573815812e-07,7.288343900832584e-07,5
1.130551165773743e-06,-7.047280408350927e-07,5.259337461314457e-06,3.313551656497723e-06,3.109428166248262e-06,-1.1209500863598583e-06,3.285986553443202e-06,-3.975492751534819e-05,1.023320763749868e-06,-1.7336181415269126e-06,-1.547412219624764e-06,1.1784251125020081e-06,5
-7.862612007516586e-07,-4.002746523373215e-06,1.227163964132155e-06,1.4129317499678738e-06,1.4119142187603759e-06,1.4844521066807526e-07,9.704011377126281e-07,-2.8805635716324237e-05,6.906995619119589e-07,-3.88416282808496e-06,-2.169536011872886e-06,2.8067708422652796e-07,5
4.443024263615639e-07,-3.7954133958459577e-06,-4.017007214892597e-06,2.8342295802789763e-07,-6.522897645836417e-07,1.1624622118256917e-06,-4.991435026577974e-07,-1.1514844727617315e-05,1.0297098561262929e-07,-5.108130677749756e-06,3.1663716803481036e-07,1.2912724001500025e-07,5
1.8462743687309257e-06,-3.3421173407336817e-06,-9.110611770222479e-06,1.200446018027748e-06,-5.398860689166653e-07,8.032430523827778e-07,1.31167227294941e-07,6.290270367436912e-07,7.425355864081649e-07,-3.929910185899631e-06,3.6007742326475813e-06,5.543814930650467e-07,5
2.5732560793365165e-06,-4.034238059561011e-06,-1.057810910875627e-05,2.806187682797509e-06,-8.666549561790956e-07,1.3827320719625211e-06,9.70011400072381e-07,6.7423079287359825e-06,1.7602632112282832e-06,-2.7898693584858502e-06,2.7985326375934932e-06,-6.078153300096338e-07,5
1.9808765272090393e-06,-3.43440518772591e-06,-1.0345328516605797e-05,1.7650643701040595e-06,-2.697358052625062e-06,1.393509970115463e-06,1.5216396547244703e-06,1.1629398004917176e-05,1.7249105131751615e-06,-3.0704864464501673e-06,-1.187768154723695e-06,-2.817736202960131e-06,5
-3.339273374333797e-06,-3.595065950779371e-06,-1.125994794237074e-05,-2.850242948004608e-06,-2.9454403243959087e-06,2.6522619867633556e-07,1.3535633047253968e-06,1.3790511228416947e-05,7.083831442961796e-07,-2.135858295472821e-06,-2.8114380705212206e-06,-2.6325833215576856e-06,5
-9.966959193375334e-06,-4.6276443311057075e-06,-9.22722024497873e-06,-7.4914360493697246e-06,-1.631037579667834e-06,-1.848581680438668e-07,-6.448648065565435e-07,-5.4131137763444153e-08,5.423698722478546e-08,9.603929333760096e-07,-2.1826890369464927e-06,-8.394955057401849e-07,5
-1.2368530346160838e-05,-2.0177016297184174e-06,-1.5944341236114449e-06,-8.364584662902597e-06,-9.84904938090652e-07,-5.332835098544186e-07,-2.5005091148968413e-06,-2.0588900468977866e-05,9.214138876986561e-07,3.570613790225179e-06,-1.373102903479356e-06,-6.674679380677159e-08,5
-9.519518646501216e-06,3.068572316524751e-06,9.821206835407477e-06,-5.942285716655013e-06,-9.625759988908217e-07,-1.1546676040771e-06,-2.401594693603083e-06,3.4015864146608346e-06,1.687269082900201e-06,4.815738976550896e-06,-4.0829981081502476e-07,9.616750632020062e-07,5
-3.3499201398402675e-06,6.789401798096675e-06,2.3012011590771636e-05,-2.8962734993404325e-06,-8.450783586097627e-07,-3.4134227264984754e-07,-3.880170307421905e-07,7.785415610265552e-05,9.276414317219843e-07,5.099284828291883e-06,6.654312303889989e-07,1.9547286709313103e-06,5
3.3178118475958094e-06,8.171994355768604e-06,2.9934561056674083e-05,-4.488485455035186e-07,-3.147001763120695e-07,1.0410036134540433e-06,3.2013283383151393e-06,0.00013216635442269296,-4.476207424561745e-07,3.7951941260029923e-06,1.7073898245536899e-06,1.7049203289754254e-06,5
9.209898270102128e-06,7.888954808173198e-06,2.4742883208597747e-05,1.4606964360947275e-06,8.484848777099188e-07,1.3102518418632806e-06,5.7847105912857235e-06,0.00012408131243643898,-1.4401206511286366e-06,3.6510073042962545e-06,1.940088041349544e-06,1.860989214427516e-06,5
1.3187652372585868e-05,6.3428659905702585e-06,1.4494322806913765e-05,2.8994642574990707e-06,1.4042978370632076e-06,1.7566911666112022e-06,6.107242041129117e-06,7.959186745051747e-05,-1.602314432622763e-06,5.127231957814728e-06,1.3270734202935421e-06,1.3864333771321492e-06,5
1.43630515841641e-05,2.9898520660770884e-06,4.972914858725482e-06,3.731324030754384e-06,5.783047427660128e-07,1.5207718836665273e-06,6.090334143485701e-06,4.6322725115842745e-05,-1.3607238266727684e-06,2.666576959329052e-06,1.7135735805597783e-07,-7.240200952262655e-07,5
1.372391144028429e-05,6.462210773424824e-07,-4.858800775707678e-06,3.996575117567943e-06,2.1791521365940047e-07,2.4083538246799296e-07,5.879643013347725e-06,3.8967908350918423e-05,-7.274088162093533e-07,-2.8030782030874834e-06,-1.1583661625970651e-06,-1.0461915125374767e-06,5
1.1563966374143813e-05,3.4413529724680025e-07,-1.4856623924097586e-05,3.959897807598746e-06,7.727050639034778e-07,5.21838456460927e-07,3.1309359168155485e-06,5.707027770884404e-06,-1.4205144818928914e-07,-5.158853361331708e-06,-4.1623041188171145e-07,1.1382877118414983e-07,5
6.649101796237809e-06,-1.0623030687439828e-06,-2.2840857244664832e-05,4.586873284049544e-06,1.0191787172687546e-06,8.494063137881509e-07,-1.7738507752873245e-06,-9.116230285454555e-05,-7.62535824983299e-07,-5.2555345055098995e-06,1.336398908766718e-06,-4.7079867836362217e-07,5
-6.261661011021009e-07,-2.1082640085736197e-06,-2.813726601455e-05,5.978014234988656e-06,2.0932183833735843e-06,-6.652174248910171e-08,-2.8521028288106985e-06,-0.00018617998156512225,-1.7081405758689386e-06,-6.81285740139885e-06,2.0497447226310083e-07,-1.3547849994877407e-06,5
-6.069833543457108e-06,-1.5648899206628428e-06,-3.2211625659657906e-05,5.8318285396851295e-06,3.406151591611019e-06,2.5733461352950004e-07,-3.0868012485981087e-07,-0.0001841069986151155,-1.6937931966608116e-06,-7.992400445664598e-06,-1.9931770816306304e-06,-4.9159424134392e-07,5
-7.563721689384263e-06,-1.6091575364412702e-06,-2.9835303485905543e-05,3.551438467375939e-06,2.0182506347936335e-06,1.252820296664549e-06,-2.5729704583605844e-06,-9.021400198056574e-05,9.882466540412409e-08,-5.656717548743655e-06,-1.3875073060129313e-06,3.0358246106207095e-07,5
-9.215918881530207e-06,-3.1506947564343964e-06,-1.066754860515567e-05,5.395638637398467e-07,-6.904946343914557e-08,-2.751250854216824e-07,-8.574258337131026e-06,-1.4577083965807895e-05,2.0028498071041178e-06,-1.6969132435814094e-06,9.907379082716254e-07,-4.884067112560582e-07,5
-1.3159357546049107e-05,-6.393799027537667e-06,2.9422191041402462e-05,-3.4057847789582904e-06,-1.4566077858702255e-06,-3.966660331898624e-06,-1.2840606091413129e-05,-2.3553768724621623e-05,9.157999670664304e-07,4.665222630137134e-07,1.6559452769015757e-06,-8.19017897366748e-07,5
-1.6122309025076784e-05,-8.535530799357942e-06,7.129743347593709e-05,-7.726151879732368e-06,-4.568975153588904e-06,-6.118328691847367e-06,-1.4470267670278819e-05,-5.2748205111725975e-05,-9.284069067525333e-08,1.133072773759052e-06,-3.8423000213733575e-07,1.3593832689016514e-07,5
-1.4146761299663538e-05,-6.1518537351679615e-06,6.561417355627048e-05,-1.0111329853541743e-05,-6.167719552253053e-06,-5.278098438170809e-06,-9.703781601238048e-06,-2.814614320359535e-05,1.0452969205072415e-06,2.0988891259756843e-06,-1.8643625074843526e-06,8.199358965223063e-07,5
-6.4230609539984194e-06,-4.7603443184888127e-07,1.9610853348346422e-06,-9.172600292368573e-06,-3.0043333042668296e-06,-2.6090178484403172e-06,-2.3408135491927546e-09,3.208976185284322e-05,5.262785590950715e-07,3.554963656117244e-06,-4.7254117954898356e-07,1.6114419081117473e-06,5
1.9837157164647577e-06,3.7939133336115156e-06,-5.268603091723589e-05,-5.70224387581777e-06,7.790267034826172e-07,4.821547641258479e-07,5.811971260080422e-06,7.485739018778005e-05,-7.56096368093021e-07,6.104202695408249e-06,9.819846284906906e-07,2.370947564165712e-06,5
5.706693888521331e-06,3.5767986172466053e-06,-5.130465500582876e-05,-1.916029602649715e-06,1.511444949245854e-06,2.5547014749144266e-06,5.002516034771831e-06,8.047621255187167e-05,5.486377790154613e-07,9.094371199681447e-06,3.367301317091692e-07,1.179819627800278e-06,5
5.559483331668012e-06,1.765634512963138e-06,-2.0205602136165826e-05,1.831104838871201e-06,9.512241193243249e-07,3.0805688567788844e-06,1.9672503176772027e-06,6.837283489451788e-05,3.0859668296779614e-06,8.891162584099678e-06,9.597235212301372e-08,-1.2049803569476162e-06,5
5.012844956605483e-06,1.1178832204855096e-06,2.497695426136399e-06,5.22972009834119e-06,1.977509662521656e-06,2.769846153901986e-06,9.770641190196904e-07,6.0929948784956944e-05,2.732363501455475e-06,5.239968303883205e-06,7.987397164831056e-07,-1.7155216203812546e-06,5
4.972188983471448e-06,8.550307206251452e-07,8.799478196442564e-06,5.147975602335482e-06,2.6502601682093563e-06,1.875831765132784e-06,6.414520926700903e-07,5.525602689515095e-05,-1.345241334582828e-06,1.2657591397923342e-06,-3.530948372219355e-07,-1.218061240886291e-06,5
3.879607746349129e-06,9.432997518893359e-07,6.8153025833086626e-06,1.9299383030597574e-06,1.6316523419240998e-06,-3.56398922269256e-07,-8.46172054204542e-07,3.852012195414272e-05,-4.206917687516792e-06,-9.19961084028671e-07,-1.4508767046557112e-06,-1.92051464277396e-06,5
1.9841967562707914e-06,5.328432403642993e-07,1.6818593590882543e-06,1.3471517255233074e-08,1.2208992047031037e-06,-1.5623525878134198e-06,2.799439469055227e-07,1.3998496396310399e-06,-3.3141242389208343e-06,-2.226988898267891e-07,3.4533035701753475e-07,-1.2979377742850189e-06,5
6.672431633132137e-07,-4.464422487615486e-07,-1.4952243005505347e-06,7.948060777000582e-07,6.708152513831247e-07,1.0330719677098839e-06,3.579515954006026e-06,-4.16278813406669e-05,-1.9192934506807292e-07,1.95344053555796e-06,1.8355243643272352e-06,6.481006859273778e-07,5
-4.014533032417503e-07,-3.490097815701008e-09,1.0877431370359484e-06,2.1677989011777193e-06,-1.0545747446285877e-07,3.1485457152371395e-06,3.555771653923021e-06,-4.8012601109778503e-05,2.5583152779719394e-06,3.454672007288521e-06,9.376070117606785e-07,7.948205369867659e-07,5
-4.387046083346958e-08,9.978601446501453e-07,5.059763074754116e-06,1.8307912355150998e-06,-1.0389599312927842e-07,8.749185452523641e-07,2.167593753764981e-06,-1.6147615671911347e-05,1.1964923127531772e-06,2.257909023603331e-06,2.3474588300952145e-07,-3.7272438706489056e-07,5
1.968855351768204e-06,9.431038591471197e-07,6.879517889151929e-06,4.605231884012621e-07,-9.972425169185507e-07,-1.6086562066610028e-06,4.117103390810187e-06,4.899281147432536e-06,-1.999918102128105e-06,-3.3078805395797686e-06,8.95822929305013e-07,-1.0051226640380546e-06,5
2.7771835775282774e-06,8.191517342336106e-07,8.066028675213065e-06,-9.529336448003763e-08,-2.371688706785325e-06,-2.442358090932941e-07,6.582845833549946e-06,-2.3065623172538986e-06,-1.8769013207312466e-06,-9.114979537184159e-06,6.215124517929811e-07,3.94581974888003e-07,5
2.188511953746159e-06,7.914270469824397e-07,1.0027958523107026e-05,-1.746523578425384e-07,-2.4268386460000627e-06,2.21962374356839e-06,6.951603980064736e-06,-1.4169778931241313e-05,-1.8363803851356767e-07,-1.031076934510643e-05,-1.729974894741626e-06,1.9534611870403378e-06,5
1.1515674116149588e-06,2.860140423713287e-07,1.0077031466945439e-05,2.2479250635852155e-08,-1.1649348030528788e-06,2.2872137939208695e-06,7.0266016252920875e-06,-1.4748711895276845e-05,3.1508801294261245e-07,-9.00849089339308e-06,-3.3131406055380403e-06,7.231553135574573e-07,5
3.780050368179906e-08,6.489854038881559e-07,6.04878288834707e-06,-3.5485517002232376e-07,2.513372931923913e-07,5.414940616797471e-07,5.861465255886118e-06,-5.572158238623137e-06,1.2747478198386348e-06,-9.181936633599899e-06,-2.5974783063936933e-06,-8.565869525079511e-07,5
7.96023860952589e-07,1.6110649016173985e-06,9.944339189881946e-07,-1.442777284235775e-06,1.0177319393266751e-06,-1.2117405008880566e-06,2.6132371428905684e-06,5.628695789087404e-06,3.1811001028423858e-06,-1.117967334289649e-05,-1.0152044912230108e-06,-9.666782122401607e-07,5
4.2189933726538364e-06,1.7092843571224064e-06,-4.089309321990738e-06,-9.449969454567054e-07,1.1754210694649812e-06,-1.3545109951678608e-06,6.3384097775827455e-09,1.4094135225993793e-05,2.7134179312833724e-06,-1.1901167600460794e-05,8.213188438519197e-07,-3.814607176636448e-07,5
7.730338506401146e-06,2.0551260047615694e-06,-8.287533551432533e-06,-1.3773870654531481e-08,6.279222348849161e-07,-4.492524493091022e-07,-1.5823899125957048e-06,2.165066209138685e-05,-2.738656260101375e-07,-9.259251396723362e-06,1.4577781967309396e-06,1.3584104829048623e-06,5
7.725609552582196e-06,2.3663455417735287e-06,-8.050724591688404e-06,-4.6222392745693507e-07,4.743077313418292e-07,-6.670400002229593e-07,-3.0191917235796157e-06,3.1962945988908155e-05,-1.386513762427032e-06,-4.2892004181930794e-06,7.621130636997435e-07,2.743162837673453e-06,5
4.629015802158646e-06,1.401131077864337e-06,-4.926933597675825e-06,-4.089750205140048e-07,1.1272567794625922e-06,-1.4821425664564347e-06,-3.216130998136455e-06,4.164187406591135e-05,-5.128817223179037e-07,9.591536389150525e-07,1.2230656572586115e-06,2.354344800202465e-06,5
-1.201397922458538e-08,5.963026903095875e-07,-2.910680724910263e-06,5.466440130866359e-07,3.893014109766122e-07,-1.527303672072779e-06,-3.4199635990578245e-06,3.927372628980805e-05,-4.7165556252036667e-07,4.6348444160523715e-06,1.6982818775337958e-06,1.8707643446361346e-06,5
-6.550341276312263e-06,6.802724026267699e-07,-2.7657119709301833e-06,7.596408360531661e-07,-1.6715701454799793e-06,-5.540992312245784e-07,-5.8163556831323745e-06,2.0664503341384263e-05,-5.494894434988769e-07,9.265446617207888e-06,1.0095689257157863e-06,1.5798580852259363e-06,5
-1.2685717508197796e-05,-4.178211518732819e-07,-3.625814217640956e-06,4.2203329338905246e-07,-1.9470401911661632e-06,7.244608361764909e-08,-8.845891464913415e-06,-1.7601906514939838e-05,6.259486484784655e-07,1.8069062630029126e-05,9.727707194349019e-07,7.419095756256034e-07,5
-1.7017803787112396e-05,-3.758425183826509e-06,-4.053392387604383e-06,6.879475488739682e-07,3.7187180375653413e-07,-1.2872951985537619e-07,-1.1226200677717766e-05,-8.208688196894185e-05,2.2159076354716856e-06,2.5896282355718326e-05,6.946847817592093e-07,-1.0759520786088716e-06,5
-1.803350008134048e-05,-5.541406065412289e-06,-2.9190475341906377e-06,5.079931810283076e-07,2.6524996437389305e-06,1.2589908648416264e-06,-1.2812843602129449e-05,-0.00013407994850029865,2.4062792449529263e-06,2.6717646220283904e-05,-7.569554077590526e-07,-3.927508537042464e-06,5
-1.1800321655884262e-05,-3.5474599332685354e-06,-1.4904414065068542e-06,-3.975587758320799e-08,2.657412686401008e-06,1.8183628286578753e-06,-1.0194024181999086e-05,-0.00011309619848395149,3.741448670494578e-07,2.1526419867774084e-05,-1.960147021520435e-06,-4.439732293130574e-06,5
-8.700460886755355e-07,-1.3673550396755552e-06,-6.73496604473471e-07,1.1488593911944738e-06,1.5848302099399813e-06,-9.90861614215735e-07,-2.8490122000004823e-06,-3.553124534660054e-05,-2.4277058308822926e-06,1.3853137886758639e-05,-2.372545950189488e-06,-2.810403555568782e-06,5
8.411404468507445e-06,-8.937688474602333e-07,5.7782584051957036e-09,2.028534524153236e-06,1.2648331720012998e-06,-2.857838149977809e-06,2.8824566331681166e-06,2.7923814860648186e-05,-3.478963345284954e-06,5.7072762072258895e-06,-1.502052818911239e-06,-3.1995139817708354e-06,5
1.235262200718273e-05,-2.166895328849667e-06,-4.814738310958892e-07,6.288798693206332e-07,1.0932878613781785e-07,-2.7587375927379867e-06,3.7595316228031786e-06,4.594843102378992e-05,-2.699573108353081e-06,-4.1697991720111455e-06,4.202175942836816e-07,-2.9178414021062818e-06,5
1.0392626571695874e-05,-4.528005440592161e-06,-5.650849511039488e-08,-1.145241322659288e-06,-2.668598437967992e-06,-1.7182852342631561e-06,2.984830256584701e-06,3.554409147047743e-05,-2.629416549186071e-06,-1.4477941927692728e-05,1.3238912713731518e-06,1.170732977666432e-07,5
6.183755825154836e-06,-4.932521091315156e-06,3.591573332674206e-06,-2.703506969826084e-06,-4.762252100622332e-06,6.242347124268405e-07,3.6383729165991396e-06,2.1616333876722128e-05,-3.1462114823539424e-06,-1.9487951936461283e-05,4.893372615110324e-07,2.761459194019914e-06,5
2.696699261150719e-06,-3.6586484512274822e-06,6.196612793313823e-06,-3.7743149790637136e-06,-4.4373725358028924e-06,2.249459712286741e-06,5.8096804019072485e-06,1.6367974496940758e-05,-1.9019833326691754e-06,-1.9324073541343916e-05,-2.890881812288376e-07,3.6131001236847362e-06,5
-1.2224928846821349e-07,-3.128634901154602e-06,5.990702308253826e-06,-3.6590241342540075e-06,-1.3114855000410807e-06,3.0844217482671955e-06,7.474964226323424e-06,2.0763152647626104e-05,1.085744627478031e-06,-1.7489486491923198e-05,7.619064402353389e-07,1.6058539717889912e-06,5
-2.6467040234876634e-06,-2.1588773147142786e-06,5.009174721132099e-06,-2.296971198048689e-06,1.215488893011465e-06,2.9048653299840124e-06,7.08727473188066e-06,2.8437816932458095e-05,3.7327001643755524e-06,-1.5314556259556483e-05,2.6071939508094527e-06,-8.766400437180449e-07,5
-4.021068610084147e-06,2.56711928389683e-07,3.1428897677024134e-06,1.7506120869265963e-07,4.959992461488684e-07,5.693662621888342e-07,5.444007617567395e-06,3.465472403456327e-05,3.4546170035263927e-06,-1.4229876671321385e-05,2.2602265259666407e-06,7.438615269943097e-07,5
-3.195308567131474e-06,2.3192931749522827e-06,2.475184842733157e-06,2.039222866616149e-06,2.7517326885375684e-07,-1.4224955633800828e-06,5.0659828571382276e-06,4.2600667817735206e-05,7.149728234639609e-07,-1.2513442381970964e-05,-8.641739362533588e-07,3.25800680582226e-06,5
-1.5229066145017708e-06,4.934664071877619e-06,3.84779430286645e-06,3.2797976409723348e-06,1.3902096924689427e-06,-1.781541015932621e-06,7.169609847518724e-06,5.1007626693615786e-05,-1.1625509678622196e-06,-9.225093710683404e-06,-3.0059052596471184e-06,2.2929585639244006e-06,5
5.915552639808166e-07,1.0077962930826686e-05,2.3464318037030136e-06,4.542115981576519e-06,1.6460279506883017e-06,-9.275137694496271e-07,8.18965900494517e-06,5.1626387293078924e-05,-1.3946467150294809e-06,-6.951931362227676e-06,-1.3284002106018364e-06,9.839266532944668e-07,5
3.471212972446016e-06,1.3511322002644377e-05,-4.322439497866581e-06,3.046937144923649e-06,1.9692690487859923e-06,4.828415500782868e-07,4.489667251296647e-06,4.0607220744172425e-05,-4.002562742263051e-07,-5.505781462646251e-06,7.199476611921819e-07,8.457386221963699e-07,5
5.378606997760802e-06,1.2952268308604468e-05,-1.0157691390126756e-05,-3.15888793226518e-07,2.036822894290908e-06,4.035627202024859e-07,-1.1164320381460344e-06,1.9211196907504858e-05,1.8434630820143758e-06,-2.6559689988843033e-06,2.609566165563206e-07,-4.1135327811649945e-07,5
7.365603058308966e-06,1.1786060916489105e-05,-8.401564813401286e-06,-1.3959073705711032e-06,1.4441752289290423e-06,1.0733175844609334e-07,-4.124715012842761e-06,-4.950046841057236e-06,4.578727482433687e-06,5.734294928662447e-06,-1.0066752230173187e-06,-1.1935067672467796e-06,5
