emg1,emg2,emg3,emg4,emg5,emg6,emg7,emg8,emg9,emg10,emg11,emg12,label
7.1253106e-07,-1.4197978e-05,-4.523101e-06,-6.296473e-07,1.9506183e-06,-3.9345e-06,-5.4220513e-06,-8.9084126e-05,-4.872629e-06,7.6183364e-06,-3.2716116e-06,0.00010867962,2
-6.840657e-06,-1.7723223e-05,-8.551483e-06,-1.3012676e-06,-1.9721188e-06,-3.4309046e-06,-1.8178413e-05,-0.00014413898,-4.7045855e-06,6.77909e-06,-2.6002112e-06,0.00011640055,2
-8.519121e-06,-1.7220089e-05,-9.894276e-06,-1.9728857e-06,-3.8613484e-06,-4.7736526e-06,-3.68095e-05,-0.00016646323,-4.536543e-06,-3.291864e-06,-4.2787e-06,9.659421e-05,2
-6.5049035e-06,-1.4367063e-05,-9.390729e-06,-2.4766546e-06,-3.4617112e-06,-6.7877954e-06,-5.342639e-05,-0.00013960764,-7.8933335e-06,-1.4537764e-05,-5.6214894e-06,7.7459255e-05,2
-3.315741e-06,-1.3024681e-05,-7.3765377e-06,-3.316124e-06,-1.6249169e-06,-7.1234467e-06,-6.5511354e-05,-8.774253e-05,-1.1585824e-05,-2.2090979e-05,-4.4465396e-06,6.856312e-05,2
-3.483564e-06,-1.4703585e-05,-5.6980457e-06,-2.3092484e-06,-1.1416018e-06,-5.4449083e-06,-7.390363e-05,-5.2494484e-05,-1.192133e-05,-2.9308496e-05,-2.9358912e-06,5.882773e-05,2
-6.6726748e-06,-1.822883e-05,-3.683855e-06,-1.6380735e-06,-3.6610204e-06,-4.269917e-06,-7.4910546e-05,-4.0409635e-05,-1.0242643e-05,-3.451182e-05,-2.6001883e-06,4.086773e-05,2
-8.518991e-06,-2.1082678e-05,-2.50891e-06,-2.9550037e-07,-5.1661546e-06,-4.1020226e-06,-6.148242e-05,-2.866048e-05,-7.2211615e-06,-3.6861715e-05,-1.4252386e-06,1.6697315e-05,2
-4.826284e-06,-1.5040518e-05,-1.8375132e-06,3.75676e-07,-4.625935e-06,-1.4163896e-06,-3.5129902e-05,-1.1036602e-05,-4.535379e-06,-3.3840428e-05,8.541038e-08,-2.437625e-06,2
-4.6218005e-07,6.108077e-06,-8.304178e-07,-2.9594136e-07,-5.5145683e-06,5.9784685e-07,-9.95233e-06,-4.6239168e-07,-2.0174466e-06,-2.6790758e-05,1.0925094e-06,-5.4590355e-06,2
-1.9728006e-06,3.17886e-05,-1.5902077e-07,-1.3032575e-06,-6.042095e-06,-4.092029e-07,6.3292327e-06,8.801123e-07,1.6478826e-07,-2.0916033e-05,7.568164e-07,5.115343e-06,2
-6.5047097e-06,4.269839e-05,6.8022547e-07,-2.1427225e-06,-5.26943e-06,-1.0805559e-06,1.8414568e-05,8.79823e-07,3.5219682e-06,-1.5377009e-05,-5.8597345e-07,1.7032517e-05,2
-8.686728e-06,3.0277133e-05,-4.947193e-07,3.909702e-08,-3.4800566e-06,1.6050778e-06,2.613582e-05,6.2507106e-06,1.0403983e-05,-1.084508e-05,-4.1811825e-07,2.055723e-05,2
-6.8403665e-06,9.799117e-06,-1.5018146e-06,1.7173707e-06,-1.7179457e-06,5.2978053e-06,3.2514283e-05,1.7328473e-05,1.7621694e-05,-6.31315e-06,1.763928e-06,1.5018084e-05,2
-4.658307e-06,-3.2935338e-06,-4.947193e-07,7.100565e-07,2.7182438e-07,5.9692456e-06,3.8892744e-05,2.8741935e-05,1.9468232e-05,-1.9490703e-06,3.6102745e-06,6.9612015e-06,2
-3.1476447e-06,-5.811683e-06,1.0159239e-06,-6.3295636e-07,9.2233034e-07,5.9692898e-06,4.1242823e-05,3.8812606e-05,1.7286387e-05,3.4221052e-06,3.77813e-06,9.185117e-07,2
-3.8190224e-06,-3.294354e-06,6.8022547e-07,-1.3045731e-06,1.0379443e-07,3.6194456e-06,3.7382477e-05,4.2505006e-05,1.594379e-05,8.121884e-06,2.7710385e-06,-6.4669707e-06,2
-3.9868537e-06,-1.2805738e-06,1.7667774e-07,5.4155163e-07,-2.2704887e-06,-4.0889287e-07,3.5200632e-05,3.9483435e-05,1.695108e-05,1.0807472e-05,1.092552e-06,-1.3516754e-05,2
-3.147592e-06,-4.4173643e-07,2.1908686e-06,2.7233725e-06,-3.067671e-06,-3.4301356e-06,4.0572002e-05,3.4111978e-05,1.7958373e-05,1.2150266e-05,-5.8593537e-07,-1.6873853e-05,2
-3.818972e-06,5.6494804e-07,5.547853e-06,2.7231547e-06,-2.0760929e-06,-3.9336405e-06,4.2250686e-05,3.0083314e-05,1.4098036e-05,9.800377e-06,-2.5023064e-07,-1.821676e-05,2
-6.504545e-06,7.323897e-07,6.0514008e-06,3.897882e-06,-1.3034297e-06,-5.1085426e-06,3.4865516e-05,3.176153e-05,4.1951275e-06,3.2542562e-06,1.2604182e-06,-1.6706228e-05,2
-9.1901165e-06,-4.4296445e-07,6.5549484e-06,5.7440066e-06,-1.7043736e-06,-1.0311826e-05,2.8487439e-05,4.6531983e-05,-1.040756e-05,-1.2776733e-06,9.247261e-07,-1.3852902e-05,2
-9.525801e-06,-2.9611124e-06,6.5549484e-06,6.079488e-06,-4.7337985e-06,-1.3836618e-05,2.9494731e-05,7.0534144e-05,-2.4003153e-05,-3.795412e-06,4.2118506e-07,-1.4860107e-05,2
-6.000953e-06,-2.2901243e-06,6.0514008e-06,5.7435727e-06,-6.5437143e-06,-1.0143893e-05,2.9494928e-05,8.2786864e-05,-3.138832e-05,-5.306055e-06,4.2119112e-07,-1.8888597e-05,2
-3.4832033e-06,5.9355987e-08,6.0514008e-06,4.736261e-06,-4.7326575e-06,-3.9334286e-06,2.3788252e-05,6.868725e-05,-2.803114e-05,-7.823794e-06,2.5334825e-07,-2.4259878e-05,2
-4.3224363e-06,3.0802344e-06,4.7086073e-06,3.8967974e-06,-2.0076034e-06,1.437789e-06,2.0767164e-05,4.3173895e-05,-1.6617194e-05,-8.830889e-06,1.0925995e-06,-3.0134708e-05,2
-4.322425e-06,2.744128e-06,2.8622655e-06,4.7358285e-06,3.2132436e-07,5.9697586e-06,2.647424e-05,2.3703109e-05,-8.560233e-06,-7.1523964e-06,2.7710978e-06,-3.8695125e-05,2
-1.3011296e-06,5.813085e-08,3.0301146e-06,6.917652e-06,3.2927708e-06,8.48754e-06,3.45312e-05,1.4974678e-05,-1.0909924e-05,-1.9490703e-06,4.617446e-06,-4.8262635e-05,2
8.8092133e-07,-1.2850712e-06,2.6944163e-06,1.0777969e-05,6.08357e-06,8.655429e-06,3.4699253e-05,1.0778178e-05,-1.6113054e-05,5.939844e-06,5.9602467e-06,-5.6487348e-05,2
3.7738147e-07,-7.819301e-07,2.5265672e-06,1.3127643e-05,7.0464075e-06,6.6412804e-06,2.49642e-05,8.931566e-06,-1.7959197e-05,1.6514346e-05,4.785309e-06,-6.068368e-05,2
1.216638e-06,1.5675502e-06,3.3658134e-06,1.2120332e-05,5.265785e-06,4.1235808e-06,1.33828025e-05,1.02740905e-05,-1.560911e-05,2.893519e-05,2.6032747e-06,-5.5984005e-05,2
4.2379315e-06,3.4134846e-06,6.2192503e-06,1.0945173e-05,1.7316568e-06,2.277279e-06,-2.1278395e-07,1.16166175e-05,-1.1748378e-05,3.6320554e-05,2.6032812e-06,-3.433155e-05,2
5.580732e-06,2.741681e-06,8.736989e-06,9.098617e-06,-8.0877226e-07,1.2702249e-06,-1.750105e-05,1.1616351e-05,-6.2091544e-06,3.6824105e-05,3.946083e-06,3.6022816e-06,2
4.237945e-06,8.94932e-07,8.233441e-06,6.077116e-06,-1.4801307e-06,1.9416607e-06,-3.7474907e-05,7.2520065e-06,-3.0198212e-06,3.4306362e-05,3.9460897e-06,3.532569e-05,2
-1.8046222e-06,-1.4553651e-06,6.722798e-06,3.7270124e-06,-9.696952e-07,2.2773982e-06,-5.4091775e-05,-4.8334036e-06,-2.8517734e-06,2.8599492e-05,1.7640568e-06,4.2543114e-05,2
-9.022134e-06,-3.805661e-06,6.890647e-06,4.5660454e-06,4.067239e-07,5.989454e-07,-6.349113e-05,-1.6583113e-05,-8.373835e-07,2.1549824e-05,-7.536762e-07,3.096142e-05,2
-1.120417e-05,-3.6382187e-06,7.0584965e-06,6.412173e-06,6.9397055e-07,-1.7509046e-06,-6.75193e-05,-2.3800892e-05,4.86969e-06,2.2892616e-05,7.569748e-07,1.4344254e-05,2
-8.686428e-06,-9.5303733e-07,6.890647e-06,4.7334674e-06,3.3670358e-07,-2.0865639e-06,-5.7280293e-05,-2.6654592e-05,1.124816e-05,4.605581e-05,1.764078e-06,1.2519204e-06,2
-3.1474015e-06,1.3964452e-06,7.897743e-06,2.5512136e-06,1.9457643e-06,1.7740067e-06,-3.126345e-05,-2.4808509e-05,1.3766098e-05,6.9890404e-05,9.2483816e-07,-1.1336862e-05,2
1.5523806e-06,1.396039e-06,8.233441e-06,1.5439057e-06,4.574171e-06,5.970275e-06,-4.7430626e-06,-2.1619633e-05,1.1248559e-05,6.0826547e-05,-2.5009956e-07,-2.8289724e-05,2
-4.993739e-06,1.059935e-06,6.5549484e-06,1.0401461e-06,5.1642164e-06,7.313108e-06,1.2713469e-05,-1.45702215e-05,9.905964e-06,1.9871331e-05,-5.857912e-07,-4.003926e-05,2
-2.5807045e-05,-6.1896293e-07,6.2192503e-06,7.042348e-07,3.7950292e-06,6.977448e-06,2.6141619e-05,-5.674469e-06,1.3766697e-05,-2.5447964e-05,5.8916225e-07,-5.1117397e-05,2
-4.796314e-05,-4.6477517e-06,6.722798e-06,7.0402274e-07,3.940801e-06,5.2989926e-06,3.520569e-05,-3.8283824e-06,1.6116786e-05,-5.4150187e-05,-7.536253e-07,-6.89095e-05,2
-6.79372e-05,-1.1026427e-05,5.0443055e-06,3.6811193e-07,5.3068648e-06,3.7883867e-06,3.134537e-05,-1.4906686e-05,1.4606343e-05,-6.6403176e-05,-2.2642607e-06,-8.60302e-05,2
-8.153299e-05,-1.5558762e-05,2.5265672e-06,-1.3105926e-06,5.9530507e-06,4.627671e-06,1.8421191e-05,-2.7831331e-05,1.2928052e-05,-6.539608e-05,-2.935649e-06,-9.42549e-05,2
-5.2830776e-05,-1.2370032e-05,2.5265672e-06,-6.3940587e-07,7.00068e-06,5.6348017e-06,3.98637e-06,-2.6488788e-05,1.34318e-05,-5.4653734e-05,-1.2571493e-06,-9.0058755e-05,2
2.907965e-05,1.0575021e-06,6.5549484e-06,2.381669e-06,9.000955e-06,4.292044e-06,-1.3134041e-05,-9.871966e-06,1.4606945e-05,-3.5686768e-05,9.2489853e-07,-7.797369e-05,2
9.9576326e-05,1.5827829e-05,1.0079782e-05,3.3885533e-06,1.0780792e-05,1.6064936e-06,-3.5457775e-05,3.8914213e-06,1.4607145e-05,-1.302712e-05,1.4284534e-06,-6.387443e-05,2
0.000101590515,1.666667e-05,6.722798e-06,1.2063038e-06,9.539519e-06,-4.0766125e-07,-5.576732e-05,4.898268e-06,1.3600251e-05,5.939844e-06,1.0927635e-06,-4.7928836e-05,2
5.4257023e-05,6.9310113e-06,1.1837732e-06,-9.759465e-07,6.342691e-06,-2.4218155e-06,-6.281677e-05,9.262102e-06,1.1586261e-05,1.7185743e-05,2.0998675e-06,-2.6947759e-05,2
1.21268595e-05,3.844858e-07,-2.1732114e-06,-6.4045844e-07,4.0295226e-06,-3.4288757e-06,-5.7109675e-05,3.007516e-05,9.2365735e-06,2.1885522e-05,1.2606286e-06,-7.633534e-07,2
-5.8330143e-06,-7.908614e-07,-3.683855e-06,-1.3120662e-06,3.322785e-06,-5.2751825e-06,-4.569571e-05,4.9209728e-05,8.229679e-06,2.3060466e-05,-2.5000622e-07,3.045653e-05,2
-1.0532801e-05,-2.3019093e-06,-3.851704e-06,-3.3264666e-06,4.0332875e-06,-6.114394e-06,-2.857487e-05,5.0720126e-05,8.062032e-06,1.7185743e-05,-2.4999792e-07,5.6305238e-05,2
-1.3386245e-05,-4.316504e-06,-5.194498e-06,-3.662374e-06,2.8371167e-06,-5.6108124e-06,-8.936289e-06,4.7530746e-05,8.565781e-06,5.1005977e-06,-5.856886e-07,7.241869e-05,2
-1.3889802e-05,-4.4847566e-06,-7.5443877e-06,-2.8233358e-06,2.4526532e-06,-5.7786265e-06,2.8133768e-06,5.726576e-05,4.8733e-06,-5.138206e-06,-1.928472e-06,8.584656e-05,2
-1.1204223e-05,-2.8066681e-06,-6.537292e-06,-3.3270935e-06,2.7252624e-06,-6.282139e-06,8.016926e-06,7.337905e-05,-7.211643e-06,-6.31315e-06,-5.8567167e-07,0.00010430991,2
-7.847247e-06,-9.607295e-07,-3.5160053e-06,-5.341492e-06,1.5047136e-06,-6.282105e-06,1.0031336e-05,8.2778366e-05,-1.9632285e-05,1.9114623e-06,2.099926e-06,0.00013317991,2
-5.8330666e-06,-3.3110216e-06,-2.1732114e-06,-5.3417e-06,2.2942565e-07,-6.114222e-06,8.688766e-06,7.102868e-05,-1.9632083e-05,1.4164457e-05,3.1070297e-06,0.00016221775,2
-6.5044765e-06,-7.0041087e-06,-3.851704e-06,-3.999114e-06,-2.8319621e-07,-6.7855844e-06,5.1641546e-06,2.6212694e-05,-8.218132e-06,2.0710577e-05,1.7642453e-06,0.0001677567,2
-7.84728e-06,-7.675908e-06,-5.194498e-06,-3.3279257e-06,1.9521717e-07,-7.456948e-06,-2.0531388e-06,-3.87452e-05,-4.968635e-07,1.8192839e-05,-7.5348584e-07,0.00013989367,2
-7.175897e-06,-6.333517e-06,-5.362347e-06,-3.495982e-06,1.0362511e-06,-7.9604615e-06,-8.431186e-06,-9.849977e-05,-4.5250426e-06,1.1478869e-05,-2.767667e-06,9.574926e-05,2
-3.4832271e-06,-3.9840293e-06,-4.8587995e-06,-2.321243e-06,2.3872685e-06,-7.960429e-06,-7.088166e-06,-0.0001431479,-1.5435042e-05,5.4362963e-06,-7.53468e-07,5.294764e-05,2
1.2165389e-06,-9.631453e-07,-5.194498e-06,-3.0725997e-07,3.7606455e-06,-4.771262e-06,2.974239e-07,-0.00018561399,-1.8791821e-05,1.9114623e-06,-8.206097e-08,2.0720528e-05,2
5.748453e-06,3.7362306e-06,-4.6909504e-06,1.0353284e-06,6.230907e-06,1.2713446e-06,4.661734e-06,-0.0002220375,-1.0231308e-05,1.072216e-06,-2.4990186e-07,-9.2840004e-08,2
7.930477e-06,7.4285117e-06,-3.683855e-06,6.9942314e-07,8.393761e-06,3.956964e-06,-4.23405e-06,-0.00019988163,1.1826444e-06,3.4221052e-06,-2.4989265e-07,-1.2345894e-05,2
9.273255e-06,1.0449397e-05,-3.180307e-06,-1.986371e-06,9.832101e-06,2.9499008e-06,-2.3536484e-05,-0.00010655769,7.5611188e-06,6.77909e-06,4.215146e-07,-1.8220677e-05,2
1.1455279e-05,1.2295337e-05,-2.8446086e-06,-4.672164e-06,9.606901e-06,1.9428367e-06,-3.6292797e-05,-1.0548152e-05,8.06487e-06,7.114789e-06,-2.4987406e-07,-2.1074171e-05,2
1.22945075e-05,1.0448594e-05,-1.1661161e-06,-5.343767e-06,6.1714336e-06,1.6071701e-06,-3.159279e-05,3.1078234e-05,4.3723903e-06,2.0793116e-06,-1.5926577e-06,-2.3759814e-05,2
9.608902e-06,4.4056214e-06,8.480747e-07,-4.6725745e-06,4.12884e-06,2.9499954e-06,-1.816462e-05,2.8392418e-05,1.8548559e-06,-3.291864e-06,-1.9283461e-06,-2.7116854e-05,2
4.2377073e-06,-2.3087493e-06,8.828522e-09,-4.3370815e-06,2.930669e-06,3.7892726e-06,-8.261283e-06,1.6307047e-05,2.5264571e-06,-6.31315e-06,-2.5997344e-06,-3.114529e-05,2
-3.4833781e-06,-7.0089295e-06,-1.5018146e-06,-2.9944931e-06,7.744647e-07,2.7822082e-06,-3.2255757e-06,7.914359e-06,1.7677186e-07,-6.145301e-06,-3.271121e-06,-3.399878e-05,2
-1.204371e-05,-6.3379325e-06,-8.304178e-07,-2.1554506e-06,-1.2657902e-06,4.3234883e-07,1.3065888e-06,2.5429613e-06,-8.551185e-06,-5.473904e-06,-4.110359e-06,-3.3830984e-05,2
-1.6743508e-05,-3.3170459e-06,1.5194717e-06,-3.330601e-06,-1.8981656e-06,1.1037771e-06,3.824558e-06,3.0462859e-06,-1.5264948e-05,-5.473904e-06,-5.1174434e-06,-3.2656088e-05,2
-1.489719e-05,-2.981748e-06,2.5265672e-06,-4.002201e-06,-2.0783134e-06,5.132188e-06,3.824792e-06,1.5466907e-05,-1.4593346e-05,-6.9845473e-06,-3.2710916e-06,-3.2320437e-05,2
-8.183242e-06,-4.9963387e-06,6.8022547e-07,-4.1702533e-06,-1.3055151e-06,7.649956e-06,6.846314e-06,3.6783542e-05,-9.389815e-06,-6.6488487e-06,-2.4979656e-07,-3.769166e-05,2
-1.9728425e-06,-7.682326e-06,-4.947193e-07,-2.659813e-06,3.055622e-07,7.314288e-06,1.6078258e-05,5.524674e-05,-5.1933803e-06,-4.6346577e-06,1.0930075e-06,-4.373428e-05,2
5.4487174e-07,-7.8505755e-06,-1.3339654e-06,-1.6529219e-06,-3.7364853e-08,4.964428e-06,2.4135257e-05,5.8099962e-05,-2.507587e-06,-1.9490703e-06,-8.192641e-08,-4.4405722e-05,2
3.769973e-07,-7.347427e-06,-1.5018146e-06,-1.9888228e-06,-1.0074428e-06,2.4467172e-06,2.5813988e-05,4.870018e-05,1.7820638e-07,1.4079145e-06,-1.9282572e-06,-4.0041687e-05,2
-1.2657489e-07,-7.179977e-06,-1.8375132e-06,-4.0032164e-06,-1.3785523e-06,1.271803e-06,2.4807132e-05,4.3160944e-05,1.1855082e-06,4.429201e-06,-1.4246999e-06,-3.567765e-05,2
2.8946852e-06,-7.180376e-06,-1.5018146e-06,-6.8568565e-06,-1.1719566e-06,9.361316e-07,2.5143068e-05,4.718911e-05,2.360658e-06,3.0864069e-06,-7.5329365e-07,-3.1145762e-05,2
7.258739e-06,-4.8308852e-06,5.1237623e-07,-7.3606057e-06,-3.0397737e-06,-7.0934064e-08,2.6150403e-05,5.054588e-05,1.8573159e-06,-2.2847685e-06,-1.0889812e-06,-2.6613872e-05,2
8.097958e-06,-2.481394e-06,1.7667774e-07,-5.6823146e-06,-5.6052104e-06,4.3264106e-07,2.7157737e-05,3.929977e-05,1.1180343e-08,-7.991643e-06,-2.0960667e-06,-2.2249833e-05,2
4.0695486e-06,-1.3068483e-06,-2.8446086e-06,-6.1860633e-06,-6.675866e-06,4.3266897e-07,2.5311638e-05,1.1604435e-05,-1.3314076e-06,-1.13486285e-05,-3.1031502e-06,-1.8053639e-05,2
-1.8052033e-06,3.712455e-07,-4.8587995e-06,-8.368306e-06,-5.212148e-06,-7.422474e-07,2.0108551e-05,-2.5322608e-05,-1.3312012e-06,-1.2859271e-05,-3.6066876e-06,-1.6375185e-05,2
-3.6515746e-06,2.3850396e-06,-3.180307e-06,-8.704205e-06,-3.1286543e-06,-7.4222e-07,1.37305215e-05,-5.1339448e-05,-4.9174787e-07,-1.2859271e-05,-1.9281838e-06,-1.620737e-05,2
-2.4766587e-06,7.08442e-06,-1.5018146e-06,-6.522365e-06,-2.6339983e-06,-7.0795835e-08,9.702383e-06,-5.28503e-05,8.5125185e-07,-1.10129295e-05,2.435906e-06,-1.4528913e-05,2
-7.9819745e-07,1.2455197e-05,-1.5018146e-06,-4.0048276e-06,-2.6615564e-06,4.3277808e-07,8.191985e-06,-3.7072678e-05,2.0264038e-06,-8.830889e-06,4.450108e-06,-1.2850454e-05,2
-4.6253095e-07,1.4468993e-05,-3.180307e-06,-2.1586854e-06,-2.4901453e-06,6.006538e-07,7.35298e-06,-1.8777317e-05,3.0337055e-06,-4.9703563e-06,2.9394748e-06,-1.3857582e-05,2
-3.316001e-06,1.2790101e-05,-4.355252e-06,-1.9910365e-06,-2.9858506e-07,9.713318e-08,5.003338e-06,-4.0067875e-06,3.8731587e-06,-6.062764e-07,2.538998e-07,-1.41933115e-05,2
-7.847962e-06,5.9078857e-06,-5.865895e-06,-3.166181e-06,-6.0674415e-07,-4.0638864e-07,6.395049e-07,1.1435139e-05,4.880462e-06,7.365176e-07,-1.5924311e-06,-1.2850548e-05,2
-9.694338e-06,-3.6599172e-06,-8.047935e-06,-3.3342303e-06,-2.4995452e-06,-5.742117e-07,-3.3886336e-06,2.5030726e-05,5.7199145e-06,-1.6133716e-06,-2.263818e-06,-1.1172085e-05,2
-9.526523e-06,-9.199339e-06,-8.215784e-06,-3.6701274e-06,-3.6913245e-06,-4.06337e-07,-4.0597824e-06,2.6876864e-05,6.22367e-06,-3.963261e-06,-1.2567107e-06,-1.0836414e-05,2
-7.176669e-06,-7.017695e-06,-4.019553e-06,-4.006024e-06,-3.5986723e-06,4.3293448e-07,-2.0453424e-06,1.5630767e-05,4.881084e-06,-3.4597135e-06,8.609564e-08,-8.3187015e-06,2
-6.305835e-07,-2.4861613e-06,-4.947193e-07,-3.5026758e-06,-3.3204465e-06,3.2863977e-06,-2.0450939e-06,6.919854e-07,4.8812917e-06,-2.7883164e-06,-5.8529196e-07,-5.800988e-06,2
5.9155004e-06,-9.759143e-07,5.1237623e-07,-2.160079e-06,-2.7246774e-06,5.4684615e-06,-2.3805424e-06,-7.868523e-06,4.8814995e-06,-2.9561659e-06,-1.9280724e-06,-7.143806e-06,2
1.0783091e-05,-1.983406e-06,-4.947193e-07,-1.321032e-06,-2.373826e-07,5.3006374e-06,-3.6610328e-07,-7.533022e-06,4.5460088e-06,-2.9561659e-06,-1.592363e-06,-6.97598e-06,2
1.2965093e-05,-1.1445555e-06,1.8551701e-06,8.608114e-07,2.9274122e-06,5.300662e-06,2.9911325e-06,-1.478509e-07,2.8677243e-06,-2.4526178e-06,1.5967847e-06,-4.122565e-06,2
1.5314945e-05,1.0370901e-06,7.729894e-06,2.539106e-06,5.3057092e-06,5.6363842e-06,4.33418e-06,1.41191385e-05,2.8679326e-06,-4.6346577e-06,3.9466854e-06,-1.2691469e-06,2
2.0014684e-05,5.065076e-06,1.1590426e-05,4.049553e-06,7.796499e-06,6.643505e-06,1.3819842e-07,2.8386132e-05,4.5466336e-06,-2.7883164e-06,3.2753e-06,2.414758e-07,2
2.3707327e-05,8.925213e-06,1.1422577e-05,7.2384914e-06,9.008969e-06,8.322021e-06,-1.1946692e-05,3.6442703e-05,7.5681282e-06,1.550725e-05,2.771763e-06,1.7521006e-06,2
2.3707287e-05,8.2534225e-06,9.576235e-06,9.756033e-06,8.662608e-06,1.0168385e-05,-2.6213624e-05,3.91281e-05,8.407584e-06,4.0013238e-05,2.771775e-06,2.9270288e-06,2
1.9678864e-05,5.5674386e-06,8.904838e-06,8.7487415e-06,7.4212494e-06,9.664861e-06,-3.0913146e-05,4.0302853e-05,6.7292995e-06,4.8405698e-05,1.2611439e-06,5.780451e-06,2
1.4643344e-05,4.5599504e-06,8.233441e-06,6.0629573e-06,5.6742533e-06,6.6435987e-06,-2.5541718e-05,3.8120623e-05,5.218865e-06,3.6320554e-05,-1.256582e-06,9.6409685e-06,2
8.26503e-06,4.8952543e-06,5.380004e-06,3.3771732e-06,2.6462194e-06,2.9509374e-06,-1.5638356e-05,2.637099e-05,4.04413e-06,1.6178648e-05,-2.263666e-06,1.6354925e-05,2
-3.3166111e-06,5.0627095e-06,3.7015118e-06,6.9139077e-07,-8.4130687e-07,-4.0602504e-07,-8.084885e-06,1.0928675e-05,1.8380614e-07,-7.7412557e-07,-5.851616e-07,2.390813e-05,2
-1.6912441e-05,3.5516728e-06,2.0230193e-06,-1.8265434e-06,-2.0517436e-06,-2.2523438e-06,-4.0562454e-06,4.8859156e-06,-3.8443654e-06,-1.067723e-05,2.4361377e-06,2.6761552e-05,2
-2.2619362e-05,1.5370882e-06,-3.3481563e-06,-5.015874e-06,-3.348618e-07,-9.095297e-07,-1.5382483e-06,1.4620988e-05,-5.186951e-06,-1.6048407e-05,3.778945e-06,2.4075958e-05,2
-1.7583929e-05,2.6051929e-08,-6.537292e-06,-6.191012e-06,1.1540711e-06,3.118876e-06,-1.3701405e-06,3.3755616e-05,-7.0330825e-06,-1.4537764e-05,3.1075595e-06,2.0551115e-05,2
-1.1205704e-05,3.3826439e-06,-3.5160053e-06,-4.8484144e-06,2.953775e-06,7.818675e-06,1.315708e-06,5.1211755e-05,-6.8650234e-06,-8.327341e-06,3.2754222e-06,1.6690574e-05,2
-7.5130683e-06,9.760523e-06,-6.625685e-07,-1.4916235e-06,4.0646723e-06,1.1343531e-05,6.0157463e-06,5.60792e-05,-4.5149236e-06,6.77909e-06,5.1217758e-06,1.2662187e-05,2
-3.149037e-06,1.7145494e-05,-4.8587995e-06,2.0330178e-06,5.3592426e-06,1.3022044e-05,6.687403e-06,3.8454855e-05,-8.2203053e-07,2.222122e-05,5.457486e-06,6.7874566e-06,2
-4.1561793e-06,1.9494993e-05,-1.1908468e-05,3.879165e-06,5.430345e-06,1.1175723e-05,4.00208e-06,-5.521826e-06,5.209738e-07,7.786186e-06,5.2896503e-06,-2.2764061e-06,2
-1.2212992e-05,1.1437838e-05,-1.4258357e-05,4.718219e-06,3.7431116e-06,6.3081156e-06,7.6950255e-06,-6.5108485e-05,-6.5375997e-07,-4.223289e-05,4.786116e-06,-1.11724175e-05,2
-1.2884438e-05,8.629438e-07,-9.22288e-06,5.557272e-06,3.7131465e-06,3.2868509e-06,2.3305267e-05,-0.00011949181,-2.8355905e-06,-9.8462384e-05,3.779034e-06,-1.755069e-05,2
1.382697e-06,-5.347871e-06,-1.1661161e-06,7.067722e-06,5.229154e-06,4.3343286e-07,4.0594e-05,-0.00015255829,-5.856666e-06,-0.00013454998,3.779047e-06,-2.7957343e-05,2
1.8838966e-05,-8.0338505e-06,4.3729087e-06,7.906776e-06,4.400684e-06,-1.7485872e-06,4.3951248e-05,-0.00014987287,-8.542044e-06,-0.00014378167,4.786155e-06,-3.8531845e-05,2
2.4042241e-05,-1.10555275e-05,9.240536e-06,5.724544e-06,1.0681952e-06,-3.5949088e-06,2.9852177e-05,-0.00010623225,-8.709682e-06,-0.00012884311,4.786168e-06,-3.5678408e-05,2
1.8335315e-05,-1.3909355e-05,1.1590426e-05,1.5281208e-06,-1.5214756e-07,-6.1126293e-06,1.2060427e-05,-4.9499376e-05,-8.038073e-06,-9.1580565e-05,2.4362912e-06,-1.1675961e-05,2
1.1621291e-05,-1.4077596e-05,8.904838e-06,-2.1647536e-06,-3.3451207e-07,-6.2804593e-06,2.8289846e-06,-2.0797326e-05,-6.52722e-06,-4.5757723e-05,-5.8498244e-07,1.3333581e-05,2
7.4250074e-06,-1.03853035e-05,4.205059e-06,-4.682683e-06,-2.4268124e-06,-7.4553845e-06,-1.702677e-06,-2.6168673e-05,-4.0092687e-06,-7.6559445e-06,-2.599159e-06,1.4340682e-05,2
4.907214e-06,-4.343121e-06,-6.0337443e-06,-4.682874e-06,-6.5127415e-06,-1.0308802e-05,-1.7144539e-05,-4.3793014e-05,6.907208e-07,1.9703482e-05,-4.1097896e-06,2.5912418e-06,2
2.557269e-06,-1.3222252e-06,-1.6272548e-05,-3.0045737e-06,-9.10327e-06,-1.114803e-05,-3.25864e-05,-5.6214023e-05,4.8871634e-06,3.7999045e-05,-4.277625e-06,-2.621872e-07,2
-1.639018e-06,-3.0011072e-06,-2.0636628e-05,-6.5487416e-07,-8.632241e-06,-1.1651559e-05,-2.6879257e-05,-4.9500217e-05,7.4051136e-06,4.018109e-05,-1.9277206e-06,3.934053e-06,2
-8.856591e-06,-1.0722562e-05,-2.0636628e-05,-1.4943113e-06,-7.314866e-06,-1.3665734e-05,-1.29475e-05,-2.0126769e-05,6.901778e-06,2.893519e-05,-9.206129e-07,5.7804054e-06,2
-1.6577715e-05,-1.978681e-05,-2.0636628e-05,-5.690731e-06,-8.123125e-06,-1.5512056e-05,-1.8654104e-05,1.2603671e-05,2.8736079e-06,2.2556918e-05,-2.4920215e-07,6.283964e-06,2
-2.0102607e-05,-2.415128e-05,-2.231512e-05,-1.00550005e-05,-9.661639e-06,-1.987612e-05,-3.7620794e-05,3.0395526e-05,-4.8316434e-07,3.094938e-05,-9.205853e-07,7.79462e-06,2
-1.9431267e-05,-2.180178e-05,-2.1308026e-05,-1.2069382e-05,-1.1136236e-05,-2.306524e-05,-4.3663094e-05,3.35845e-05,-1.1543491e-06,4.9077098e-05,-9.2057144e-07,5.276896e-06,2
-1.657789e-05,-1.6263144e-05,-1.1572769e-05,-1.223742e-05,-1.3159434e-05,-2.4072317e-05,-3.4263263e-05,4.0801857e-05,-4.827398e-07,6.1162245e-05,2.1007295e-06,-7.6566204e-07,2
-1.1206775e-05,-9.7174125e-06,8.233441e-06,-1.13983615e-05,-1.2218742e-05,-2.2058108e-05,-2.4192037e-05,5.4229637e-05,1.028115e-06,5.780526e-05,5.1220295e-06,-5.129726e-06,2
-5.1642633e-06,-2.164585e-06,2.6696856e-05,-8.545115e-06,-8.427804e-06,-1.6519069e-05,-1.4456505e-05,6.3796884e-05,3.5460664e-06,4.135603e-05,4.7863455e-06,-5.8011055e-06,2
1.0460974e-06,5.0525437e-06,3.0389541e-05,-5.3561666e-06,-6.2520144e-06,-1.03086295e-05,-2.2032355e-06,6.597877e-05,5.56047e-06,2.5578205e-05,3.1078669e-06,-3.1154984e-06,2
6.2493614e-06,1.2101824e-05,2.3339873e-05,-4.6849564e-06,-6.214417e-06,-4.266041e-06,9.2107875e-06,6.73214e-05,5.8963815e-06,1.785714e-05,2.100786e-06,2.9270934e-06,2
6.920696e-06,1.579412e-05,1.4947411e-05,-4.349446e-06,-5.242908e-06,-6.9794226e-08,1.3910842e-05,7.034253e-05,8.611171e-07,1.4500155e-05,2.9400455e-06,1.2158823e-05,2
3.5636467e-06,1.6632977e-05,7.729894e-06,-8.247993e-07,-3.52638e-06,6.016172e-07,1.2568326e-05,7.453861e-05,-8.873926e-06,1.0136075e-05,4.115006e-06,2.038346e-05,2
3.874845e-08,1.4282703e-05,1.1837732e-06,3.2033947e-06,-3.5917245e-07,6.0163245e-07,1.35757e-05,7.70562e-05,-1.3573492e-05,8.625432e-06,3.4436234e-06,1.4173061e-05,2
-4.6486355e-07,5.050606e-06,-5.865895e-06,4.713852e-06,2.4486762e-06,2.6158373e-06,1.8107907e-05,7.202057e-05,-9.377046e-06,1.1143171e-05,2.436542e-06,-8.486563e-06,2
2.0646678e-07,-7.202775e-06,-1.1908468e-05,2.5316244e-06,5.0697117e-06,4.294345e-06,1.9283132e-05,5.3221305e-05,-3.5021098e-06,1.3996608e-05,2.4365565e-06,-3.198543e-05,2
2.0640039e-07,-1.1735091e-05,-1.2076317e-05,1.8600413e-06,5.1880625e-06,3.2872656e-06,1.4751485e-05,2.9050863e-05,-5.01254e-06,1.5339401e-05,7.580793e-07,-4.1049265e-05,2
1.2134303e-06,-8.042794e-06,-8.551483e-06,3.3704985e-06,3.582482e-06,1.4409378e-06,8.037796e-06,1.6126325e-05,-9.879953e-06,1.3996608e-05,-2.490019e-07,-3.802795e-05,2
2.8918535e-06,-3.1755521e-06,-5.362347e-06,2.8667657e-06,2.0632117e-06,1.9444988e-06,6.527117e-07,2.3679391e-05,-1.3068875e-05,1.2150266e-05,-8.113705e-08,-3.2488893e-05,2
1.213294e-06,-4.9035003e-07,-2.8446086e-06,1.0202396e-06,1.0237626e-06,4.2944016e-06,-7.068072e-06,4.5667497e-05,-1.6089947e-05,1.0807472e-05,5.902749e-07,-2.5942743e-05,2
-6.507842e-06,1.0199072e-06,-2.1732114e-06,6.843555e-07,-4.7968706e-07,3.623019e-06,-1.159972e-05,5.1877774e-05,-1.8943172e-05,1.0136075e-05,-1.5917501e-06,-1.922874e-05,2
-2.5978423e-05,-4.9112117e-07,-7.3765377e-06,1.5234168e-06,-2.8175823e-06,2.2802371e-06,-1.2102983e-05,2.4350355e-05,-1.6760916e-05,8.793281e-06,-1.591735e-06,-1.4193231e-05,2
-5.165943e-05,-8.548271e-06,-1.4761905e-05,1.3553833e-06,-4.9781715e-06,3.1194982e-06,-1.2102699e-05,-2.399037e-05,-9.878881e-06,4.9327487e-06,1.5974161e-06,-1.133976e-05,2
-7.750828e-05,-1.9458856e-05,-1.8286739e-05,1.0195012e-06,-4.1832177e-06,4.965852e-06,-1.1431017e-05,-8.340914e-05,-2.6611513e-06,4.0081912e-07,1.5974314e-06,-8.318439e-06,2
-0.000111917456,-2.9194498e-05,-1.9293833e-05,2.6978082e-06,1.6863218e-07,7.1479044e-06,-1.0423635e-05,-0.00015323456,-3.1104653e-07,-1.9490703e-06,8.68037e-08,-4.9614177e-06,2
-0.00013273083,-3.0705523e-05,-1.6608246e-05,4.208269e-06,4.619521e-06,8.65856e-06,-4.884324e-06,-0.00021433183,1.7033587e-06,-7.7412557e-07,-2.4888092e-07,-2.7793392e-06,2
-7.062668e-05,-1.15710955e-05,-7.5443877e-06,7.397221e-06,9.597421e-06,9.497817e-06,3.3405752e-06,-0.00023531313,7.2425987e-06,5.4362963e-06,1.5974775e-06,-1.6043554e-06,2
7.875907e-05,2.166267e-05,2.8622655e-06,1.0921872e-05,1.4059388e-05,1.2015567e-05,1.0726229e-05,-0.00018512634,1.1606894e-05,1.3828759e-05,2.9402852e-06,-3.2828082e-06,2
0.00019155368,4.213989e-05,8.904838e-06,1.1760935e-05,1.3856912e-05,1.4365469e-05,9.383726e-06,-6.9646194e-05,1.7649681e-05,1.6850045e-05,2.6046027e-06,-2.947068e-06,2
0.00017778997,3.6600486e-05,9.744084e-06,1.1089356e-05,8.794974e-06,1.06727975e-05,-3.372529e-06,4.281266e-05,2.2349675e-05,1.1814567e-05,1.0939754e-06,9.135065e-07,2
9.487237e-05,2.182937e-05,9.576235e-06,9.74638e-06,4.296614e-06,5.1337834e-06,-1.6128779e-05,9.1824506e-05,2.1007098e-05,2.9185576e-06,2.5474614e-07,4.6062332e-06,2
3.3103774e-05,1.2093729e-05,8.56914e-06,8.0677055e-06,3.0928436e-06,2.4482051e-06,-1.6799886e-05,8.64532e-05,1.8321725e-05,-3.6275624e-06,-5.8448603e-07,8.298961e-06,2
1.4640279e-05,8.736361e-06,6.722798e-06,8.403223e-06,1.9524816e-06,3.4553127e-06,-9.246378e-06,6.765395e-05,1.6643447e-05,-3.291864e-06,-1.927262e-06,1.2327389e-05,2
1.3297407e-05,9.910925e-06,7.562044e-06,8.403042e-06,9.3805164e-07,3.623172e-06,-1.5250214e-06,5.3386633e-05,1.6811513e-05,2.3296988e-07,-2.5986442e-06,1.5348722e-05,2
6.919057e-06,1.0414089e-05,1.4276014e-05,6.22082e-06,-9.747023e-07,-4.0519984e-07,4.0142986e-06,4.566544e-05,1.5468935e-05,6.512066e-08,-2.766477e-06,1.6691565e-05,2
-4.49477e-06,8.903063e-06,2.619331e-05,4.542148e-06,-5.2416244e-06,-3.426476e-06,8.54652e-06,4.5161763e-05,7.580237e-06,-6.4809997e-06,-4.1092558e-06,1.6355918e-05,2
-1.2383765e-05,5.8813953e-06,3.257158e-05,5.0455146e-06,-8.772194e-06,-4.7692615e-06,1.6603577e-05,5.691108e-05,-2.490502e-06,-1.2859271e-05,-5.452032e-06,1.6523818e-05,2
-1.1208901e-05,2.8597285e-06,2.5354064e-05,4.8774855e-06,-1.0580652e-05,-6.1120463e-06,2.8185468e-05,7.789211e-05,-7.190064e-06,-1.6048407e-05,-5.2841665e-06,1.50132255e-05,2
-1.809426e-06,1.6844011e-06,1.1926124e-05,4.3737577e-06,-1.0616343e-05,-4.937092e-06,3.3053395e-05,9.518047e-05,-6.6863004e-06,-1.73912e-05,-4.277056e-06,1.1991992e-05,2
5.575858e-06,3.026815e-06,4.205059e-06,2.3593873e-06,-8.228769e-06,-2.2514942e-06,2.8018212e-05,9.484464e-05,-4.671892e-06,-1.6048407e-05,-2.7663957e-06,1.0649253e-05,2
5.4079255e-06,3.529981e-06,3.5336625e-06,1.8556601e-06,-4.390367e-06,1.9447443e-06,1.8451105e-05,7.184917e-05,-2.3217865e-06,-1.067723e-05,-1.0878872e-06,1.26635005e-05,2
1.3794609e-06,4.0331474e-06,4.205059e-06,3.5339733e-06,-2.0850268e-06,3.4553966e-06,1.1066032e-05,3.0893832e-05,-3.4965146e-06,-5.306055e-06,-9.200216e-07,1.3334953e-05,2
-1.1383636e-06,4.368467e-06,3.3658134e-06,5.715836e-06,-1.6465527e-06,3.9589518e-06,6.0308557e-06,-1.5936224e-05,-6.517585e-06,-2.2847685e-06,-2.5984968e-06,9.30663e-06,2
-8.027487e-07,3.864538e-06,3.1979641e-06,7.0584506e-06,-1.0259031e-06,5.301754e-06,-8.739578e-06,-5.9409296e-05,-1.03779e-05,-1.9490703e-06,-4.1091243e-06,2.257021e-06,2
-4.671365e-07,1.6821178e-06,3.869361e-06,8.568916e-06,-1.1190276e-06,6.6445564e-06,-2.8713339e-05,-9.600055e-05,-1.8937995e-05,-2.620467e-06,-5.6197505e-06,-4.2850687e-07,2
-8.02921e-07,3.389442e-07,4.205059e-06,1.041508e-05,-2.4703675e-06,7.148111e-06,-3.8112594e-05,-0.00011295344,-2.4308953e-05,-3.963261e-06,-6.1232804e-06,5.786496e-07,2
-2.9946122e-07,2.0170567e-06,3.0301146e-06,1.0079205e-05,-2.5050922e-06,5.637474e-06,-3.425176e-05,-0.0001022112,-1.9776806e-05,4.0935024e-06,-2.9341277e-06,-2.7782728e-06,2
8.7539587e-07,2.3523776e-06,3.4452697e-07,9.40763e-06,1.895434e-07,3.9589886e-06,-2.7705339e-05,-7.1830604e-05,-1.5580357e-05,2.6081752e-05,2.7727624e-06,-9.827877e-06,2
7.0745824e-07,1.1770536e-06,-1.1661161e-06,8.903906e-06,4.7346434e-06,3.1197503e-06,-2.2837408e-05,-3.9100116e-05,-1.7258631e-05,4.3538075e-05,6.1297646e-06,-1.2513399e-05,2
-1.306823e-06,-3.3396805e-07,-1.3339654e-06,6.385991e-06,6.431548e-06,2.1126596e-06,-1.3773246e-05,-2.0133264e-05,-1.7594113e-05,4.2363128e-05,5.794084e-06,-1.0834841e-05,2
-4.496047e-06,-1.8449905e-06,-3.0124577e-06,2.0217344e-06,4.542058e-06,-9.0862125e-07,3.2639215e-07,-1.9965526e-05,-1.1551322e-05,2.7256698e-05,3.779911e-06,-1.0163377e-05,2
-8.524521e-06,-4.1952567e-06,-4.523101e-06,7.3664537e-09,2.8535906e-06,-3.5942014e-06,1.2076146e-05,-3.0372288e-05,-4.669285e-06,1.1478869e-05,3.4442294e-06,-9.491911e-06,2
-1.2049446e-05,-5.8741275e-06,-2.50891e-06,-1.6065819e-07,2.266051e-06,-3.7620448e-06,1.6608381e-05,-3.7757763e-05,-3.158424e-06,1.2485963e-05,4.95489e-06,-1.938626e-06,2
-1.171384e-05,-7.385149e-06,2.1908686e-06,-6.6438054e-07,2.2084907e-06,-3.4263412e-06,2.2819107e-05,-2.6679822e-05,-3.1582058e-06,2.9270888e-05,4.619208e-06,6.621756e-06,2
-8.860495e-06,-7.721224e-06,4.7086073e-06,-3.3501447e-06,2.949965e-07,-4.4334333e-06,2.8190589e-05,-6.632958e-07,-3.6615356e-06,4.135603e-05,2.1014878e-06,2.2577492e-06,2
-1.540671e-05,-1.1754819e-06,3.5336625e-06,-5.1966604e-06,-5.810161e-07,-4.769126e-06,2.9197992e-05,1.880711e-05,-5.5076594e-06,2.9270888e-05,2.551643e-07,-1.6205595e-05,2
-3.0009687e-05,1.3091329e-05,-6.625685e-07,-4.693286e-06,5.664613e-07,-3.9298748e-06,2.7016262e-05,2.6360221e-05,-8.025178e-06,-2.9561659e-06,-2.262558e-06,-3.366184e-05,2
-4.0752133e-05,2.5847492e-05,-3.851704e-06,-2.1757219e-06,1.9454146e-06,-2.0835282e-06,2.3156039e-05,3.0388499e-05,-6.346467e-06,-4.0554398e-05,-3.9410334e-06,-4.356487e-05,2
-4.3102118e-05,3.1553987e-05,-3.5160053e-06,-1.5044998e-06,2.5869947e-06,-9.08581e-07,2.030291e-05,3.240259e-05,2.046213e-06,-6.741028e-05,-3.4374655e-06,-5.044661e-05,2
-3.974523e-05,3.5917696e-05,-4.947193e-07,-1.6725223e-06,5.64142e-06,1.105616e-06,2.4163752e-05,3.3577435e-05,1.0942441e-05,-7.949542e-05,-2.2625045e-06,-5.5146313e-05,2
-2.5645992e-05,4.733107e-05,5.2121545e-06,-4.0225846e-06,7.1464183e-06,2.2805627e-06,2.6178255e-05,3.223454e-05,1.4635343e-05,-8.251671e-05,-1.9267866e-06,-5.2796346e-05,2
3.7275286e-06,6.2269275e-05,5.2121545e-06,-8.386839e-06,4.730081e-06,7.699231e-07,2.1814487e-05,3.1730895e-05,1.2285673e-05,-7.848832e-05,-1.2553725e-06,-3.601134e-05,2
3.6793732e-05,5.521923e-05,-2.8446086e-06,-1.3758187e-05,7.9776464e-07,-9.0856673e-07,1.7450717e-05,4.23053e-05,8.089661e-06,-6.7745976e-05,-2.4302992e-06,6.622448e-06,2
5.0053724e-05,-1.0106401e-06,-8.551483e-06,-1.6108248e-05,-3.8238355e-07,-1.4121108e-06,2.1815113e-05,6.664334e-05,8.25773e-06,-4.894686e-05,-2.933828e-06,5.76487e-05,2
3.511504e-05,-8.359284e-05,-9.390729e-06,-1.3422831e-05,3.5163143e-06,2.7841238e-06,3.1382835e-05,9.5513315e-05,8.0901e-06,-2.410517e-05,-2.094565e-06,8.819735e-05,2
1.8807904e-06,-0.00012119145,-1.3251261e-05,-9.226773e-06,6.3339417e-06,6.476809e-06,3.490798e-05,0.00011364094,6.076128e-06,-5.306055e-06,-3.4373384e-06,8.954023e-05,2
-3.4374745e-05,-9.450379e-05,-2.1643724e-05,-8.891246e-06,5.028485e-06,3.9590727e-06,2.8194323e-05,0.00011296944,5.9084987e-06,1.072216e-06,-4.947964e-06,7.5776676e-05,2
-5.3341813e-05,-4.935272e-05,-2.5672105e-05,-1.0737759e-05,1.9848799e-06,-1.5799504e-06,1.8123685e-05,9.870218e-05,6.915814e-06,3.2542562e-06,-5.2836435e-06,6.3859465e-05,2
-3.823548e-05,-2.149012e-05,-2.2818667e-05,-1.1745024e-05,-1.0799229e-06,-6.6154257e-06,7.717352e-06,7.537104e-05,6.748184e-06,1.1478869e-05,-5.955023e-06,5.47957e-05,2
1.712533e-06,-1.343373e-05,-1.9629533e-05,-1.20808945e-05,-4.5025185e-06,-8.965315e-06,-1.68189e-06,4.0626157e-05,4.3985146e-06,1.2150266e-05,-6.2907025e-06,3.9521503e-05,2
4.8374517e-05,-1.6791088e-05,-1.3922658e-05,-9.059778e-06,-4.3866457e-06,-6.447574e-06,-4.8707084e-06,2.8599893e-06,4.7344333e-06,4.7648996e-06,-4.7800404e-06,2.3072369e-05,2
8.144071e-05,-2.3841128e-05,-5.026649e-06,-3.6887725e-06,8.9322407e-07,-9.0854905e-07,-4.366842e-06,-3.4906177e-05,8.091639e-06,3.4221052e-06,-2.9336798e-06,7.2946336e-06,2
7.472664e-05,-2.7198486e-05,-8.304178e-07,-3.319572e-07,5.7523544e-06,1.6091917e-06,-1.0576944e-05,-8.6100285e-05,1.1952391e-05,1.4079145e-06,-2.765812e-06,-6.8046097e-06,2
3.981389e-05,-1.42744675e-05,-4.1874027e-06,-6.6782457e-07,6.8902223e-06,-6.929983e-08,-3.3068423e-05,-0.00015324006,1.2624008e-05,-7.991643e-06,-2.597944e-06,-1.5532676e-05,2
1.0272319e-05,1.5602325e-05,-6.0337443e-06,-3.0178835e-06,5.5583587e-06,-3.2584355e-06,-6.3784515e-05,-0.00020359491,1.027434e-05,-1.6887652e-05,-2.262227e-06,-1.771462e-05,2
-1.3444198e-07,3.9940092e-05,-4.1874027e-06,-3.8572985e-06,1.7121305e-06,-4.4333815e-06,-8.661169e-05,-0.00020728768,8.931766e-06,-2.1083883e-05,-1.5908099e-06,-1.821807e-05,2
-8.059459e-07,3.8093378e-05,-3.2686998e-07,-2.0111247e-06,-1.6294808e-06,-4.2655306e-06,-9.4164585e-05,-0.00016230416,1.0610479e-05,-1.940539e-05,-1.5907907e-06,-2.2917751e-05,2
1.2081365e-06,1.9461742e-05,2.8622655e-06,1.1778432e-06,-8.321932e-07,-5.104778e-06,-8.761814e-05,-9.49967e-05,1.4135534e-05,-1.302712e-05,-2.9335656e-06,-2.7281732e-05,2
4.061463e-06,6.3691314e-06,6.2192503e-06,3.0240162e-06,8.385432e-07,-5.272628e-06,-6.1097635e-05,-3.5074605e-05,1.5478548e-05,-1.2355723e-05,-4.612039e-06,-2.8960125e-05,2
7.2504886e-06,4.690268e-06,9.576235e-06,2.3524517e-06,1.087282e-06,-3.426287e-06,-2.2827686e-05,4.20204e-06,1.22896345e-05,-1.5041312e-05,-5.6191157e-06,-2.728153e-05,2
7.586077e-06,5.025595e-06,1.0583331e-05,1.1773406e-06,-4.808582e-07,-3.0905903e-06,2.6857226e-06,2.5686666e-05,7.925775e-06,-1.3530667e-05,-5.9547942e-06,-1.8217568e-05,2
6.7467195e-06,4.8573756e-06,1.02476315e-05,8.414747e-07,-1.72016e-06,-3.0905917e-06,1.124636e-05,3.5757545e-05,6.247504e-06,-7.3202455e-06,-3.940585e-06,-1.4325398e-06,2
7.9215515e-06,5.3605527e-06,1.0919029e-05,-3.336369e-07,-9.19853e-07,-7.4070346e-07,1.1078833e-05,4.1800045e-05,6.9191224e-06,-3.795412e-06,-9.1927825e-07,2.1059364e-05,2
8.928534e-06,6.1994306e-06,1.2597521e-05,-1.3408992e-06,1.9051467e-06,1.1056366e-06,1.14148625e-05,4.515695e-05,5.744399e-06,-5.977452e-06,2.1020285e-06,5.0768784e-05,2
6.0749844e-06,4.856266e-06,1.4779562e-05,6.731268e-07,2.2795996e-06,1.9448794e-06,1.5947118e-05,4.0121406e-05,3.059033e-06,-6.9845473e-06,2.4377462e-06,8.11496e-05,2
-9.747971e-07,1.561178e-07,1.6122354e-05,4.029946e-06,1.4095106e-06,3.9590677e-06,2.0479374e-05,3.0386076e-05,5.4151616e-07,-4.802507e-06,1.43067e-06,8.719228e-05,2
-7.3531837e-06,-6.3903713e-06,1.4276014e-05,3.6940817e-06,1.9447702e-06,4.630463e-06,2.1990349e-05,2.5686228e-05,-8.0105616e-07,6.512066e-08,2.6056348e-06,6.0336515e-05,2
-1.0542435e-05,-9.747724e-06,7.729894e-06,5.047817e-07,2.947929e-06,3.7912132e-06,2.1487127e-05,2.4679064e-05,-1.3043823e-06,8.121884e-06,4.787696e-06,2.4416893e-05,2
-9.367605e-06,-7.0625056e-06,1.3516224e-06,-1.341726e-06,2.2100278e-06,2.7841152e-06,1.4941339e-05,1.8972121e-05,-1.9755573e-06,1.768929e-05,4.787716e-06,-1.0999185e-05,2
-7.857079e-06,-4.3772857e-06,1.7667774e-07,-6.704925e-07,-1.7233874e-06,3.2876596e-06,-6.6831126e-07,6.0476646e-06,-5.33232e-06,2.1549824e-05,3.444942e-06,-4.8093752e-05,2
-1.2892674e-05,-3.7062566e-06,2.1908686e-06,5.042883e-07,-4.7493263e-06,1.777012e-06,-1.6949356e-05,-1.0569476e-05,-1.1038971e-05,1.6178648e-05,2.9414132e-06,-7.72994e-05,2
-2.3299444e-05,-4.042322e-06,3.5336625e-06,-3.3512248e-07,-5.7179773e-06,-2.083524e-06,-2.5509335e-05,-2.5508123e-05,-1.4227885e-05,9.2968285e-06,2.4378865e-06,-9.374852e-05,2
-3.0013534e-05,-1.8606505e-06,2.6944163e-06,-2.013778e-06,-6.2574663e-06,-4.265568e-06,-2.164847e-05,-3.2054308e-05,-1.5738307e-05,7.4504874e-06,7.594148e-07,-0.0001039872,2
-2.8670862e-05,2.1673643e-06,1.7667774e-07,-4.028132e-06,-6.72402e-06,-4.7691215e-06,-1.2584277e-05,-2.7018892e-05,-1.3891742e-05,8.289733e-06,-1.0869068e-06,-0.00010885471,2
-2.2796257e-05,4.5168877e-06,-2.1732114e-06,-4.699691e-06,-5.7394154e-06,-4.265577e-06,-7.3806164e-06,-2.064068e-05,-7.848946e-06,9.464678e-06,-4.1548932e-07,-0.00010532976,2
-1.7257351e-05,7.034259e-06,-5.6980457e-06,-3.3570618e-06,-5.1105167e-06,-3.090638e-06,-3.5197515e-06,-1.661236e-05,-4.827438e-06,8.121884e-06,1.934421e-06,-8.8712564e-05,2
-9.704258e-06,1.2069369e-05,-7.880086e-06,-4.02862e-06,-6.351624e-06,-2.0835473e-06,4.0338027e-06,-8.555654e-06,-4.1558174e-06,4.429201e-06,3.277236e-06,-6.1185165e-05,2
-5.172452e-06,1.760803e-05,-8.047935e-06,-4.36448e-06,-4.390612e-06,1.9448282e-06,1.4440788e-05,6.8864174e-06,-1.6378573e-06,1.9114623e-06,2.6058585e-06,-3.4664863e-05,2
-2.6657277e-05,1.7439816e-05,-6.0337443e-06,-1.6790547e-06,-6.1956126e-07,7.1481495e-06,2.2162192e-05,2.937816e-05,1.215804e-06,-7.7412557e-07,1.7666343e-06,-1.687272e-05,2
-7.9697755e-05,1.0054083e-05,-3.683855e-06,1.6712492e-07,2.7289398e-06,1.1344375e-05,2.6862308e-05,4.633088e-05,-4.624653e-07,-6.6488487e-06,4.116544e-06,-1.4304645e-06,2
-0.0001322347,-4.3813175e-06,-4.1874027e-06,-1.5115281e-06,3.6966267e-06,1.1344368e-05,2.8541135e-05,4.717007e-05,-8.519007e-06,-1.1516478e-05,6.130755e-06,2.542554e-05,2
-0.00014700554,-2.2173701e-05,-7.0408396e-06,-5.7079187e-06,8.5602534e-07,6.476734e-06,2.7198683e-05,3.357423e-05,-1.3889959e-05,-1.2691421e-05,3.780888e-06,6.7891524e-05,2
-0.000104204126,-3.1237923e-05,-1.02299755e-05,-9.400762e-06,3.6787688e-07,4.2946867e-06,2.736687e-05,2.2328277e-05,-1.0364902e-05,-1.2691421e-05,1.5988691e-06,0.00011673579,2
2.2354076e-05,-1.546046e-05,-7.5443877e-06,-8.729527e-06,5.2478435e-06,7.651664e-06,3.3745484e-05,3.89453e-05,-2.9793111e-06,-8.327341e-06,2.773833e-06,0.00015735543,2
0.00018214642,1.9787514e-05,5.1237623e-07,-3.3585113e-06,1.0578289e-05,1.0840794e-05,4.2138283e-05,7.4193595e-05,3.2313344e-06,-2.7883164e-06,4.6201963e-06,0.00017917596,2
0.00023854364,3.7243473e-05,7.2263456e-06,1.1732602e-06,9.733473e-06,1.0672938e-05,3.9956587e-05,8.762148e-05,4.238653e-06,6.512066e-08,5.459464e-06,0.00016910513,2
0.00016066147,2.7172153e-05,9.408385e-06,6.6955306e-07,4.272353e-06,6.980247e-06,2.8543178e-05,7.368995e-05,1.5532893e-06,-4.3842707e-07,4.1166923e-06,0.00012781435,2
5.592341e-05,1.3576004e-05,7.2263456e-06,-2.351892e-06,1.8734244e-08,2.7840078e-06,1.3604939e-05,5.5226486e-05,-1.2999243e-06,2.3296988e-07,4.2403045e-07,7.829897e-05,2
7.079152e-06,1.0386504e-05,3.1979641e-06,-4.7019394e-06,-3.7355253e-06,1.1055077e-06,-3.0117897e-06,4.1798503e-05,-1.2997003e-06,5.2684472e-06,-2.093688e-06,4.154012e-05,2
4.7291333e-06,6.189912e-06,-2.1732114e-06,-3.6950037e-06,-4.280219e-06,3.4553884e-06,-1.6942935e-05,3.038471e-05,7.147149e-07,9.464678e-06,-2.4293645e-06,1.9384159e-05,2
1.19465185e-05,-6.3991447e-06,-6.8729905e-06,-2.3523667e-06,-2.2953964e-06,5.973117e-06,-2.3153012e-05,2.0985111e-05,2.2255824e-06,1.0975321e-05,-9.1869987e-07,6.9634525e-06,2
1.4128426e-05,-1.630261e-05,-8.215784e-06,-2.6882221e-06,-1.7504983e-06,5.973108e-06,-2.2984817e-05,1.9474426e-05,3.5686e-06,1.6178648e-05,4.2411685e-07,2.4316641e-06,2
1.2114103e-05,-1.4120933e-05,-4.523101e-06,-2.5205304e-06,-2.2859467e-06,4.126758e-06,-2.1809527e-05,1.9977935e-05,4.7437693e-06,2.1549824e-05,4.2413862e-07,2.2639556e-06,2
8.924834e-06,-6.0645307e-06,1.0159239e-06,-2.3528385e-06,-2.5913407e-06,1.4411615e-06,-2.365552e-05,7.389202e-06,6.422486e-06,2.222122e-05,-1.2543326e-06,1.7605485e-06,2
5.9034146e-06,-1.1972649e-06,3.5336625e-06,-1.1780502e-06,-1.9221577e-06,9.3760303e-07,-2.5165818e-05,-2.7355629e-05,8.101203e-06,1.6682196e-05,-3.2685007e-06,-2.7712376e-06,2
3.7212387e-06,4.8086633e-07,3.5336625e-06,5.002854e-07,6.968463e-07,1.7768402e-06,-2.0129994e-05,-7.5864096e-05,7.765729e-06,8.289733e-06,-4.2755755e-06,-9.149365e-06,2
1.2033664e-06,1.4876017e-06,2.1908686e-06,2.6821683e-06,1.7978109e-06,1.944679e-06,-1.37513725e-05,-0.00013796835,3.2340245e-06,4.429201e-06,-3.6041556e-06,-1.4184697e-05,2
-9.87482e-06,3.1229646e-07,1.0159239e-06,4.3605055e-06,-5.561644e-07,9.3757285e-07,-1.3079627e-05,-0.00019151228,-1.2273571e-07,7.4504874e-06,-2.471494e-07,-2.089852e-05,2
-3.2198906e-05,-3.3807455e-06,-1.1661161e-06,4.696049e-06,-3.2030334e-06,-6.9531694e-08,-1.8786151e-05,-0.00018647686,1.0524335e-06,1.6346497e-05,2.102763e-06,-2.6437398e-05,2
-5.6369332e-05,-6.7380906e-06,-2.1732114e-06,3.8566473e-06,-4.414062e-06,-1.7480355e-06,-2.4156976e-05,-0.00012252633,3.234699e-06,2.5578205e-05,2.1027852e-06,-2.9290684e-05,2
-7.2482995e-05,-8.9204905e-06,-1.6696639e-06,1.6744523e-06,-4.377405e-06,-3.4265386e-06,-2.3485229e-05,-5.9750735e-05,4.9134164e-06,2.9942285e-05,-9.1847954e-07,-2.9290535e-05,2
-6.89583e-05,-1.2445683e-05,-6.625685e-07,3.315038e-07,-4.5679035e-06,-3.7622478e-06,-1.4253167e-05,-2.8866507e-05,4.577943e-06,2.675315e-05,-4.2754423e-06,-2.576555e-05,2
-3.622784e-05,-9.928303e-06,2.5265672e-06,-6.7574535e-07,-4.4415415e-06,-4.937205e-06,6.8576855e-07,-5.000147e-07,4.410319e-06,2.1885522e-05,-5.4503626e-06,-2.54297e-05,2
1.3791093e-05,-1.3683511e-06,5.0443055e-06,-6.7589923e-07,-3.165483e-06,-3.9301212e-06,1.4114058e-05,3.5419696e-05,6.424735e-06,1.9535633e-05,-5.114642e-06,-2.6100943e-05,2
4.7864345e-05,4.3381656e-06,3.5336625e-06,8.3459025e-07,-3.5555386e-06,-2.58734e-06,1.7974944e-05,5.5729422e-05,5.7535635e-06,1.6850045e-05,-3.9396764e-06,-2.4757994e-05,2
4.0982388e-05,5.0092035e-06,-1.1661161e-06,3.30889e-07,-4.4824365e-06,-3.9301453e-06,1.4114766e-05,5.4386608e-05,1.8932564e-06,1.1982416e-05,-2.5968586e-06,-2.4757837e-05,2
1.16086285e-05,1.987559e-06,-5.026649e-06,-1.0120569e-06,-2.9802973e-06,-5.272952e-06,9.583193e-06,4.5658424e-05,-3.8133915e-06,3.0864069e-06,-7.504949e-07,-2.8282515e-05,2
-7.694177e-06,-3.6268642e-07,-2.3410607e-06,3.305835e-07,-1.1756763e-06,-4.43372e-06,8.744303e-06,3.9112278e-05,-9.352191e-06,-7.3202455e-06,1.7672679e-06,-3.163934e-05,2
-6.5193767e-06,1.6511465e-06,1.293322e-05,2.5124712e-06,6.8543204e-07,-2.9230887e-06,9.583905e-06,3.2398286e-05,-1.0023363e-05,-1.2355723e-05,1.9351398e-06,-3.0632087e-05,2
6.4048713e-06,4.6720766e-06,3.8110604e-05,3.3515653e-06,8.6973563e-07,-3.2588e-06,9.416413e-06,2.4677202e-05,-6.6661523e-06,-1.1852175e-05,7.6021786e-07,-2.4757202e-05,2
1.7147078e-05,6.685911e-06,5.7748966e-05,3.8549615e-06,-4.6375064e-07,-4.7694575e-06,8.409676e-06,1.5277623e-05,-5.1552834e-06,-9.670135e-06,1.095939e-06,-1.9553714e-05,2
1.8321878e-05,2.825023e-06,6.12738e-05,5.0297554e-06,-1.8460064e-06,-5.1051693e-06,7.0672386e-06,2.8567617e-06,-6.4978512e-06,-6.8166983e-06,2.103058e-06,-1.8882154e-05,2
1.3621952e-05,-6.574891e-06,5.4224132e-05,5.8688506e-06,-2.8565178e-06,-3.42669e-06,2.3678194e-06,-5.2000196e-06,-7.169021e-06,-5.6417534e-06,1.0959853e-06,-2.2406824e-05,2
7.579233e-06,-1.1946422e-05,4.197114e-05,6.707946e-06,-2.4459162e-06,-2.5874594e-06,-3.842243e-06,1.513934e-06,-4.986756e-06,-3.963261e-06,-2.4678542e-07,-2.4253e-05,2
2.5436084e-06,-9.26119e-06,2.4346968e-05,6.3720977e-06,3.5028987e-07,-2.0839248e-06,-6.5274694e-06,1.2927668e-05,-2.6366395e-06,-1.6133716e-06,1.096032e-06,-2.1735095e-05,2
1.5363652e-06,-4.3939167e-06,6.722798e-06,3.3506603e-06,3.4806096e-06,6.0164746e-07,-7.702054e-06,1.1249161e-05,-3.643508e-06,-2.9561659e-06,2.9423963e-06,-1.888149e-05,2
3.5504063e-06,-3.658893e-07,-7.880086e-06,-6.0490456e-06,5.787116e-06,2.6158225e-06,-9.715883e-06,2.5209877e-06,-4.314679e-06,-6.8166983e-06,2.103175e-06,-1.8209925e-05,2
3.0467097e-06,3.6621373e-06,-2.3322216e-05,-1.847004e-05,6.596101e-06,2.9515072e-06,-8.7084245e-06,-8.360094e-07,-4.65015e-06,-9.670135e-06,7.604045e-07,-1.8377605e-05,2
5.288206e-07,6.347372e-06,-3.7085854e-05,-2.249857e-05,4.961559e-06,2.951492e-06,-6.022473e-06,-6.681709e-07,-4.8177735e-06,-1.0341532e-05,2.1032222e-06,-2.0223775e-05,2
-6.4627426e-07,7.689812e-06,-4.84996e-05,-1.5113354e-05,2.410826e-06,3.6228732e-06,-4.0079203e-06,5.067649e-07,-1.17767726e-07,-1.084508e-05,3.9495876e-06,-2.1734246e-05,2
3.606682e-07,6.010967e-06,-5.319938e-05,-2.6926562e-06,9.2909846e-07,3.4550083e-06,-1.993364e-06,5.067566e-07,6.5964286e-06,-1.084508e-05,3.7817626e-06,-2.6601701e-05,2
-3.500016e-06,-3.6765815e-07,-4.480692e-05,6.706752e-06,2.5722872e-07,2.7835952e-06,-1.3216033e-06,-2.8502357e-06,8.778696e-06,-1.2187874e-05,4.7888816e-06,-3.0629908e-05,2
-1.2396178e-05,-7.4176796e-06,-3.2386073e-05,1.0734986e-05,-6.487058e-07,2.1121807e-06,-8.1768985e-07,-9.060664e-06,5.9254858e-06,-1.48734625e-05,5.2924524e-06,-2.6265652e-05,2
-1.6592563e-05,-9.767921e-06,-3.2721775e-05,1.2245481e-05,-3.8808403e-07,3.958506e-06,-9.851727e-07,-1.4263995e-05,3.575823e-06,-1.5880556e-05,4.4532303e-06,-1.8880108e-05,2
-1.0550145e-05,-7.0826864e-06,-4.212133e-05,1.3923826e-05,1.6226026e-06,5.4691322e-06,-8.3701725e-06,-1.7620983e-05,3.7438997e-06,-1.3530667e-05,3.4461593e-06,-2.0558422e-05,2
-5.5148216e-06,-2.3832588e-06,-4.1282085e-05,1.6777118e-05,5.018578e-06,6.6440607e-06,-2.0790649e-05,-2.114582e-05,3.5762775e-06,-1.1684326e-05,2.1033895e-06,-2.6936514e-05,2
-1.4578836e-05,2.3161685e-06,-2.4665009e-05,1.8455463e-05,6.8286786e-06,6.1404944e-06,-2.6832853e-05,-2.3999259e-05,8.9091697e-07,-1.2187874e-05,8.922379e-08,-2.6264937e-05,2
-3.270671e-05,2.4836663e-06,-4.523101e-06,1.7112523e-05,6.3614552e-06,4.2941347e-06,-2.4818293e-05,-2.4838504e-05,-3.4729358e-06,-8.66304e-06,-3.267737e-06,-1.8543691e-05,2
-5.3520176e-05,-2.3843127e-06,5.2121545e-06,1.37553925e-05,4.32447e-06,2.951324e-06,-2.0621694e-05,-2.7020546e-05,-5.31905e-06,9.128979e-06,-4.1069607e-06,-9.143951e-06,2
-7.483718e-05,-9.77003e-06,4.205059e-06,7.880523e-06,5.913011e-07,7.6926483e-07,-1.8271434e-05,-2.7356242e-05,-5.82237e-06,2.893519e-05,-3.267688e-06,-4.443988e-06,2
-6.14094e-05,-7.756189e-06,3.5336625e-06,9.985599e-07,-2.1616058e-06,-2.4198876e-06,-1.3571285e-05,-1.2921203e-05,-8.843429e-06,3.380282e-05,-3.7712116e-06,-4.779501e-06,2
1.0262063e-05,7.014193e-06,6.5549484e-06,-3.365667e-06,-3.7277607e-06,-2.2520571e-06,-8.871135e-06,1.2591887e-05,-1.13609385e-05,2.65853e-05,-4.7782833e-06,-6.625657e-06,2
8.3444174e-05,2.1113181e-05,8.065592e-06,-7.2263433e-06,-3.3100346e-06,2.6566192e-07,-1.0045708e-05,3.038391e-05,-7.5001785e-06,1.4500155e-05,-2.5962186e-06,-6.7933183e-06,2
9.334712e-05,2.0441432e-05,5.0443055e-06,-1.0247775e-05,-2.647193e-06,1.2727388e-06,-1.4409415e-05,3.357305e-05,1.8996058e-06,1.4079145e-06,-9.1770175e-07,-3.4361456e-06,2
5.4573782e-05,9.027335e-06,1.1837732e-06,-1.0751466e-05,-1.6841108e-06,6.0132146e-07,-1.2730549e-05,2.8369734e-05,1.0627995e-05,-9.502286e-06,-1.0855259e-06,1.2638224e-06,2
1.5800446e-05,1.9773177e-06,-1.1661161e-06,-9.576664e-06,-8.281417e-07,-2.3794314e-07,-6.450314e-07,2.2662867e-05,1.2642414e-05,-1.940539e-05,8.944487e-08,6.2994914e-06,2
-1.823887e-06,-1.0443158e-06,-5.194498e-06,-8.905411e-06,-1.3142229e-06,6.01282e-07,1.4126075e-05,1.578106e-05,7.775014e-06,-2.9812045e-05,-9.1762723e-07,8.817421e-06,2
-5.348884e-06,-6.7515384e-06,-1.0397824e-05,-8.905554e-06,-2.1471876e-06,9.369599e-07,2.755439e-05,8.899252e-06,2.2362171e-06,-4.626127e-05,-3.6031893e-06,5.2927817e-06,2
-3.8384046e-06,-7.758981e-06,-1.0397824e-05,-7.730751e-06,-1.849639e-06,-7.4155145e-07,4.1318403e-05,9.73851e-06,-4.645373e-06,-6.9760164e-05,-4.61026e-06,4.2534805e-07,2
1.8981206e-07,-1.7167577e-06,-4.8587995e-06,-6.3881e-06,-1.6830902e-06,-9.09423e-07,6.0453596e-05,2.7698394e-05,-6.9950347e-06,-9.107702e-05,-3.26744e-06,9.290906e-07,2
6.7357682e-06,-1.0457069e-06,-7.3765377e-06,-7.227489e-06,-1.9469016e-06,6.0120016e-07,8.311362e-05,6.529664e-05,-3.4699722e-06,-0.00010467281,-2.596019e-06,4.62197e-06,2
1.1435382e-05,-4.738738e-06,-1.7615343e-05,-8.738273e-06,-1.5003835e-06,1.1047281e-06,0.00010073816,9.920219e-05,8.9433644e-07,-0.000111554626,-2.0924465e-06,7.307757e-06,2
1.2945858e-05,-4.0676864e-06,-2.013308e-05,-7.731319e-06,-3.8150816e-07,-7.4163523e-07,0.00010812392,0.00010658758,4.083701e-06,-0.000110043984,-1.2531742e-06,3.9509714e-06,2
9.588706e-06,-3.732335e-06,-1.140492e-05,-4.878024e-06,7.63874e-08,-2.7558488e-06,0.000106445805,9.282395e-05,5.258874e-06,-9.745529e-05,-5.8175283e-07,-3.4341956e-06,2
4.5530614e-06,-6.418269e-06,-9.982668e-07,-1.7838539e-07,-1.2257831e-07,-7.0281565e-08,0.00010073929,7.704615e-05,4.755555e-06,-7.496349e-05,-7.817834e-08,-9.140868e-06,2
1.3637581e-06,-6.754313e-06,5.8835517e-06,2.6749112e-06,-7.6023994e-08,6.3079665e-06,9.201153e-05,6.0596947e-05,3.245141e-06,-4.6932662e-05,7.610932e-07,-9.476364e-06,2
-2.3290938e-06,-5.915412e-06,1.02476315e-05,2.0033751e-06,1.4004954e-06,8.657834e-06,7.0862894e-05,3.6930225e-05,1.7347264e-06,-1.7559049e-05,1.2646658e-06,-7.126271e-06,2
-7.3647416e-06,-6.9228527e-06,1.1422577e-05,3.2474247e-07,1.260193e-06,5.1329775e-06,3.527924e-05,4.871043e-06,5.646293e-08,1.0807472e-05,9.2899353e-07,-7.126066e-06,2
-1.1896842e-05,-8.60169e-06,9.408385e-06,-8.5034094e-07,1.4293278e-06,-5.739192e-07,7.0268146e-07,-2.0809865e-05,-3.132443e-06,3.2460022e-05,8.977428e-08,-5.4473676e-06,2
-1.2568409e-05,-6.7556925e-06,7.897743e-06,-6.82631e-07,6.911138e-07,-4.434476e-06,-2.078164e-05,-2.4334675e-05,-8.503391e-06,4.3202373e-05,8.980012e-08,-7.5984836e-08,2
-9.211595e-06,-5.2453943e-06,9.072687e-06,4.921753e-07,-3.2455941e-06,-6.4486894e-06,-3.8573275e-05,-1.2920901e-05,-1.6224225e-05,5.3441177e-05,-5.81573e-07,4.2883034e-06,2
-4.176291e-06,-6.7563806e-06,1.02476315e-05,1.1634338e-06,-5.2626874e-06,-6.95226e-06,-5.6364912e-05,-4.528412e-06,-1.9077435e-05,6.787621e-05,-4.1369702e-07,4.79206e-06,2
-9.873279e-07,-6.588875e-06,8.233441e-06,-6.8304627e-07,-3.712787e-06,-5.105943e-06,-6.526054e-05,-8.724614e-06,-1.555237e-05,7.593298e-05,1.264821e-06,3.6173276e-06,2
-2.1624464e-06,-6.25352e-06,6.2192503e-06,-5.215114e-06,-3.2456494e-06,-4.938118e-06,-6.962423e-05,-3.3062726e-05,-1.0348815e-05,7.861856e-05,2.6076411e-06,4.2889355e-06,2
-6.5267027e-06,-6.421712e-06,9.240536e-06,-9.74718e-06,-6.06309e-06,-8.295125e-06,-8.5737374e-05,-6.780749e-05,-5.9845042e-06,7.861856e-05,2.1041203e-06,4.9605446e-06,2
-8.876766e-06,-2.2258232e-06,8.736989e-06,-9.915167e-06,-7.7645045e-06,-1.1819983e-05,-0.000104536106,-8.962786e-05,-2.6272905e-06,7.1568895e-05,7.6135257e-07,4.4572116e-06,2
-7.5341477e-06,4.3199557e-06,-1.1661161e-06,-4.7119765e-06,-4.782716e-06,-1.1987857e-05,-0.00010302507,-8.643869e-05,-1.284267e-06,6.183364e-05,1.4327749e-06,3.95388e-06,2
-4.848737e-06,7.508748e-06,-1.3922658e-05,6.590622e-07,-3.1870474e-07,-1.047724e-05,-8.4896965e-05,-7.133222e-05,5.6230476e-07,5.6798162e-05,2.7755952e-06,2.6113023e-06,2
-2.499023e-06,6.669161e-06,-2.1979422e-05,2.00172e-06,1.6388436e-06,-8.7987755e-06,-7.398638e-05,-6.377897e-05,1.905328e-06,5.4280426e-05,3.4470197e-06,-1.752561e-06,2
-1.1564085e-06,4.654629e-06,-2.3322216e-05,3.1765283e-06,1.3870094e-06,-6.113212e-06,-7.6671575e-05,-7.3849886e-05,1.7377088e-06,4.9580645e-05,3.4470463e-06,-8.1306125e-06,2
1.835816e-08,2.136549e-06,-2.1140175e-05,5.190584e-06,1.3783668e-06,-4.2668944e-06,-7.683904e-05,-8.912413e-05,2.745034e-06,4.2866675e-05,3.782772e-06,-1.2830172e-05,2
2.2002203e-06,-2.5635698e-06,-1.9293833e-05,6.701092e-06,1.6677826e-06,-4.2669203e-06,-6.206791e-05,-8.8620545e-05,5.0951535e-06,3.7327653e-05,3.6149486e-06,-1.2326403e-05,2
3.2071355e-06,-7.935087e-06,-1.8286739e-05,6.7009573e-06,3.1971258e-06,-1.4135106e-06,-4.108637e-05,-7.317838e-05,8.284519e-06,3.3970668e-05,3.4471263e-06,-9.472744e-06,2
3.3748042e-06,-9.110371e-06,-1.4258357e-05,5.1901793e-06,4.7262088e-06,3.621941e-06,-2.3965353e-05,-5.5554166e-05,1.029894e-05,3.0613683e-05,2.9436042e-06,-8.801124e-06,2
2.1996793e-06,-6.5929717e-06,-4.8587995e-06,3.0080053e-06,5.400866e-06,7.1467484e-06,-1.27190615e-05,-3.826565e-05,1.0634869e-05,2.8767341e-05,2.440084e-06,-1.0479391e-05,2
2.1994977e-06,-5.7540647e-06,1.0919029e-05,1.1615305e-06,5.5319183e-06,7.31457e-06,-3.654812e-06,-1.1745429e-05,9.963702e-06,2.8263792e-05,2.104413e-06,-1.16541105e-05,2
3.2064104e-06,-7.7685945e-06,2.7032556e-05,1.5429994e-07,5.700549e-06,7.650241e-06,7.2557814e-06,2.3502955e-05,8.6211385e-06,2.440326e-05,2.7758358e-06,-1.1653883e-05,2
4.8847205e-06,-9.950973e-06,3.2403732e-05,6.5771576e-07,6.105102e-06,9.160857e-06,1.9173473e-05,4.9183935e-05,4.928686e-06,1.6514346e-05,2.775863e-06,-1.3835695e-05,2
5.2202345e-06,-1.1126256e-05,2.619331e-05,1.8325269e-06,6.8875665e-06,8.99298e-06,2.7566328e-05,5.4890854e-05,-4.4225902e-07,5.2684472e-06,7.6170016e-07,-1.3499768e-05,2
3.8772564e-06,-1.12944435e-05,1.5954505e-05,2.0002444e-06,6.834223e-06,7.31446e-06,3.0588006e-05,4.7169837e-05,-5.8132046e-06,-4.6346577e-06,9.033137e-08,-3.4285833e-06,2
4.2127704e-06,-9.448439e-06,9.240536e-06,6.573183e-07,6.1148758e-06,5.971637e-06,2.9581308e-05,3.6091835e-05,-9.841355e-06,-1.0173682e-05,9.296037e-07,1.3188724e-05,2
3.5411867e-06,-1.2241644e-06,6.722798e-06,-1.3570055e-06,5.411545e-06,4.9645146e-06,2.8910308e-05,2.6692329e-05,-1.0512522e-05,-1.2859271e-05,1.09748e-06,1.9399376e-05,2
-1.6623254e-06,1.9756653e-05,6.2192503e-06,-3.874875e-06,4.11791e-06,4.2930883e-06,2.8239308e-05,1.7796372e-05,-9.169497e-06,-1.067723e-05,5.9396046e-07,5.3002755e-06,2
-4.515948e-06,4.2583815e-05,8.233441e-06,-4.882102e-06,2.5719812e-06,4.293059e-06,2.6729065e-05,1.1082454e-05,-4.133789e-06,-4.2989595e-06,-5.8095804e-07,-1.0477318e-05,2
-3.1733439e-06,4.6947556e-05,1.2765371e-05,-6.560724e-06,2.7660292e-06,3.118087e-06,2.6225915e-05,1.5614436e-05,2.2447127e-06,3.7578038e-06,-1.0844775e-06,-1.0141384e-05,2
-7.2019134e-06,3.3351433e-05,2.0654285e-05,-7.5679504e-06,9.227465e-07,-1.7495712e-06,2.2197934e-05,2.8706732e-05,5.2662294e-06,1.1478869e-05,-7.735385e-08,-1.5808353e-06,2
-1.9287247e-05,1.5559079e-05,2.5689762e-05,-6.2252857e-06,-3.676154e-06,-6.2815307e-06,1.4477264e-05,3.4749362e-05,1.9094755e-06,1.8360688e-05,1.6011669e-06,-1.4127479e-06,2
-3.4729565e-05,6.201618e-07,2.0318586e-05,-5.5540195e-06,-6.7747123e-06,-8.2957495e-06,5.413807e-06,2.971394e-05,-6.482756e-06,3.094938e-05,1.4333436e-06,-1.0308518e-05,2
-4.563996e-05,-8.108334e-06,1.0919029e-05,-4.043506e-06,-5.9377494e-06,-7.4565346e-06,-7.3423334e-06,2.216078e-05,-9.503809e-06,3.7327653e-05,5.9412645e-07,-2.0211382e-05,2
-3.4562097e-05,-7.4372724e-06,6.890647e-06,-1.5258972e-06,-3.380494e-06,-5.274525e-06,-1.909138e-05,1.4943324e-05,-4.1324024e-06,2.423541e-05,4.2630538e-07,-2.1721784e-05,2
-4.888944e-07,-3.879381e-07,8.904838e-06,3.3416018e-06,-1.2350422e-06,-4.7710087e-06,-2.1105168e-05,2.5225406e-06,1.9104002e-06,1.4079145e-06,-2.4506463e-07,-3.425974e-06,2
3.6437745e-05,8.00419e-06,1.4947411e-05,7.369856e-06,9.826699e-07,-7.2887774e-06,-2.043337e-05,-2.164769e-05,6.946109e-06,-1.77269e-05,-2.450366e-07,2.6115737e-05,2
4.9194092e-05,9.68235e-06,1.6290205e-05,7.034029e-06,6.239347e-07,-9.303e-06,-3.1678865e-05,-5.1021245e-05,8.792682e-06,-2.813355e-05,5.9423854e-07,4.642574e-05,2
3.845155e-05,4.982236e-06,1.293322e-05,1.6627254e-06,-1.7644761e-06,-1.0310126e-05,-4.795984e-05,-6.209923e-05,6.946572e-06,-3.4176122e-05,1.4335117e-06,4.995082e-05,2
2.2841377e-05,-5.5712087e-07,8.233441e-06,-4.7156723e-06,-3.3436504e-06,-1.232435e-05,-4.9805778e-05,-4.2125106e-05,5.7718585e-06,-4.122579e-05,5.94295e-07,3.7530222e-05,2
1.15952835e-05,-1.7323995e-06,4.3729087e-06,-7.2335392e-06,-4.912039e-06,-1.2156529e-05,-3.486679e-05,-1.1576478e-05,6.275638e-06,-5.0625353e-05,-7.707371e-08,1.7724264e-05,2
1.8598315e-06,1.2885553e-06,2.8622655e-06,-6.7301194e-06,-5.833433e-06,-9.303127e-06,-1.50601745e-05,8.397648e-06,5.4366233e-06,-5.5996526e-05,-4.1274433e-07,5.975066e-06,2
-8.043468e-06,2.2953193e-06,2.8622655e-06,-3.3732606e-06,-4.6672494e-06,-6.114023e-06,1.3894588e-06,1.6958029e-05,6.2761014e-06,-5.5996526e-05,-5.805659e-07,6.143166e-06,2
-1.5093336e-05,1.9592876e-06,2.1908686e-06,3.1929713e-07,-1.694496e-06,-4.099864e-06,1.1292971e-05,2.0147234e-05,1.0304714e-05,-5.028965e-05,-4.1268734e-07,3.961378e-06,2
-1.7107723e-05,4.3088476e-06,1.0159239e-06,1.6619653e-06,1.3474915e-06,-2.2535544e-06,1.4146813e-05,2.1657948e-05,1.2486987e-05,-3.937945e-05,-1.2519047e-06,-9.13061e-06,2
-1.5429428e-05,6.8262543e-06,8.828522e-09,2.8367847e-06,3.2132045e-06,-1.2464934e-06,1.5490017e-05,2.6022099e-05,9.801631e-06,-2.9476345e-05,-2.5946701e-06,-2.2893993e-05,2
-9.890602e-06,4.811733e-06,1.1837732e-06,4.6830014e-06,3.3812985e-06,-1.0786777e-06,1.6665368e-05,3.4918183e-05,5.102084e-06,-2.2762375e-05,-2.2589434e-06,-2.6922118e-05,2
8.5154977e-07,-2.5739632e-06,6.8022547e-07,4.682877e-06,3.513743e-06,9.6234906e-08,1.6833626e-05,4.5828456e-05,5.703864e-07,-1.5712707e-05,-2.0910654e-06,-2.1550686e-05,2
9.579509e-06,-9.288263e-06,-2.8446086e-06,4.0113555e-06,8.3098297e-07,-2.3949679e-07,1.6666188e-05,5.052831e-05,-1.9471206e-06,-7.3202455e-06,-1.9231857e-06,-1.04723795e-05,2
1.1257802e-05,-1.0127839e-05,-4.1874027e-06,4.0112313e-06,-9.495498e-07,2.6401625e-07,1.7505843e-05,4.968914e-05,2.3515142e-07,-7.7412557e-07,-5.803647e-07,1.4451758e-06,2
7.900615e-06,-7.6104293e-06,-1.1661161e-06,5.186051e-06,-6.7033824e-07,2.2781721e-06,1.817765e-05,3.978611e-05,2.9209718e-06,6.512066e-08,5.946103e-07,7.823707e-06,2
5.2148257e-06,-5.26087e-06,8.828522e-09,6.6965713e-06,-3.8527602e-07,5.2994246e-06,1.7506665e-05,1.1587518e-05,4.7675458e-06,-3.6275624e-06,2.7766785e-06,8.495364e-06,2
2.1933367e-06,-8.450333e-06,-3.0124577e-06,6.864297e-06,2.250033e-06,8.488526e-06,1.5996435e-05,-3.557804e-05,6.949818e-06,6.1076935e-06,3.1124064e-06,7.99208e-06,2
-8.2815257e-07,-1.2479043e-05,-7.5443877e-06,5.353531e-06,5.5743058e-06,1.083838e-05,1.2807713e-05,-9.315025e-05,8.628543e-06,2.7592396e-05,2.2731897e-06,1.3363519e-05,2
-1.3319055e-06,-1.281507e-05,-1.1237071e-05,4.010615e-06,4.6189753e-06,1.2013289e-05,3.7442649e-06,-0.0001498832,9.635871e-06,3.6991954e-05,2.10537e-06,2.6120326e-05,2
1.7853279e-07,-9.122714e-06,-1.2579864e-05,3.5069443e-06,1.7290545e-06,1.1006158e-05,-6.1584233e-06,-0.00016918578,7.95761e-06,2.3899713e-05,2.6089463e-06,4.021993e-05,2
8.497255e-07,-5.766056e-06,-1.1908468e-05,6.6959587e-06,1.5860755e-06,8.152687e-06,-1.0186392e-05,-0.00010926352,2.7545163e-06,2.7507085e-06,2.2732777e-06,4.340933e-05,2
-1.5003704e-06,-5.7663824e-06,-6.537292e-06,8.710028e-06,2.0944728e-06,6.138459e-06,-1.0521675e-05,-1.5042273e-06,-5.805562e-06,-1.2691421e-05,1.0983622e-06,3.3170796e-05,2
-2.675521e-06,-6.605955e-06,1.7667774e-07,7.3671135e-06,2.0273246e-06,4.9634787e-06,-9.010616e-06,7.067103e-05,-9.8337105e-06,-2.4776566e-05,1.4340898e-06,1.2693458e-05,2
-1.5799036e-07,-6.438432e-06,1.8551701e-06,7.3669926e-06,2.9560524e-06,4.2920447e-06,-2.7997771e-06,7.856003e-05,-6.8121926e-06,-3.2833334e-05,1.7698194e-06,-1.0805165e-05,2
3.1987868e-06,-5.767361e-06,-3.2686998e-07,9.213214e-06,4.968594e-06,4.795557e-06,5.4252505e-06,5.8250367e-05,-2.7835779e-06,-3.467967e-05,1.0984511e-06,-3.2960994e-05,2
5.380618e-06,-3.7534953e-06,-1.5018146e-06,9.213094e-06,6.183313e-06,5.634765e-06,1.6168018e-05,4.3144024e-05,-2.111948e-06,-2.9644196e-05,1.0984808e-06,-4.8738548e-05,2
5.548258e-06,-1.0682323e-06,-9.982668e-07,8.205878e-06,5.8108335e-06,5.802577e-06,2.1203912e-05,3.55909e-05,-3.7902073e-06,-2.0916033e-05,5.9496364e-07,-5.2766656e-05,2
4.540953e-06,-9.00707e-07,2.1908686e-06,6.6951156e-06,5.3426397e-06,4.9632945e-06,2.1540029e-05,3.307325e-05,-4.6292207e-06,-1.3194969e-05,-1.0834995e-06,-4.7730908e-05,2
4.3728937e-06,-3.974843e-07,4.8764564e-06,3.1701622e-06,6.326598e-06,4.459708e-06,2.2211849e-05,3.206625e-05,-3.9575907e-06,-7.3202455e-06,-9.1562055e-07,-4.034526e-05,2
6.0511748e-06,2.7358772e-07,4.03721e-06,3.166064e-07,7.4639893e-06,3.9561232e-06,1.9190982e-05,2.8373663e-05,-2.9502626e-06,-1.9490703e-06,4.2720447e-07,-3.3463166e-05,2
5.5474147e-06,9.446621e-07,2.0230193e-06,-8.58456e-07,4.7092417e-06,2.6132902e-06,1.24774315e-05,1.86385e-05,-3.4535776e-06,1.743613e-06,1.4343285e-06,-2.7756014e-05,2
2.693765e-06,2.7906808e-06,5.1237623e-07,-1.6978211e-06,1.6291275e-06,1.7740069e-06,5.9317326e-06,4.7071103e-06,-7.3138767e-06,2.2471606e-06,4.2726472e-07,-2.1209615e-05,2
2.190005e-06,6.315192e-06,5.1237623e-07,-4.8870747e-06,3.738783e-07,1.2704214e-06,3.414414e-06,1.5180734e-06,-1.2852668e-05,2.41501e-06,-2.4410306e-07,-1.1474078e-05,2
3.8682833e-06,1.034325e-05,-3.5160053e-06,-9.922668e-06,-3.0643253e-07,7.6683364e-07,5.764726e-06,1.1924824e-05,-1.2684586e-05,2.0793116e-06,9.162723e-08,1.7862933e-06,2
3.8680687e-06,1.2860666e-05,-1.1237071e-05,-1.2776222e-05,-2.3713826e-06,3.2845346e-06,9.289983e-06,1.9310291e-05,-5.802534e-06,2.5828592e-06,-2.440424e-07,1.7060856e-05,2
-5.028156e-06,1.3531742e-05,-1.6943945e-05,-1.1601394e-05,-2.6843563e-06,5.298685e-06,1.4158033e-05,9.910836e-06,7.438193e-07,5.1005977e-06,-1.083258e-06,2.7132095e-05,2
-2.8023716e-05,8.663792e-06,-1.9293833e-05,-9.083772e-06,-1.9926997e-06,3.284456e-06,1.2647814e-05,-5.3633426e-06,5.7620355e-07,9.464678e-06,-1.2510765e-06,3.485345e-05,2
-5.4711963e-05,-2.7502774e-06,-1.7279643e-05,-8.916039e-06,-2.331161e-06,-7.439658e-07,7.3094526e-07,-6.7060328e-06,-1.4377541e-06,2.5242507e-05,-1.418895e-06,4.878522e-05,2
-6.897937e-05,-8.961019e-06,-1.1908468e-05,-8.916155e-06,-3.54008e-06,-1.4154037e-06,-1.0010983e-05,8.041343e-09,-5.9827374e-07,4.1691736e-05,-3.2652054e-06,6.842387e-05,2
-6.56226e-05,-5.7722045e-06,-7.5443877e-06,-8.91627e-06,-4.3744867e-06,1.941541e-06,-1.2192597e-05,1.6866394e-06,1.248301e-06,3.514561e-05,-5.447215e-06,8.403414e-05,2
-4.2627467e-05,4.6341283e-06,-5.5301966e-06,-8.412839e-06,-3.8081917e-06,2.4450476e-06,-9.674433e-06,-4.523675e-06,-4.299578e-07,8.121884e-06,-5.1114857e-06,8.1516686e-05,2
-1.672475e-06,1.3865517e-05,-4.1874027e-06,-6.7344613e-06,-3.1929387e-06,-9.1197813e-07,-7.3241154e-06,-1.3083878e-05,-2.9474631e-06,-2.2762375e-05,-3.432962e-06,4.794713e-05,2
4.3982298e-05,1.2186704e-05,-1.8375132e-06,-2.7061915e-06,-5.552995e-07,9.507792e-08,-2.623909e-06,-1.493011e-05,-2.7793806e-06,-4.7604066e-05,-2.9293842e-06,-4.085843e-06,2
8.241955e-05,1.611883e-06,2.5265672e-06,2.4970195e-06,6.441731e-06,4.7948156e-06,6.104678e-06,-1.3251508e-05,5.778381e-07,-6.052846e-05,-2.9293533e-06,-4.839775e-05,2
8.510492e-05,-3.4239117e-06,4.205059e-06,4.511098e-06,1.1611605e-05,5.2983214e-06,1.3658321e-05,-1.895827e-05,3.935056e-06,-6.522823e-05,-1.9222261e-06,-6.837152e-05,2
5.388474e-05,1.0060309e-07,1.1837732e-06,2.6646414e-06,1.14981285e-05,2.1091437e-06,1.4497996e-05,-2.936481e-05,4.2709885e-06,-6.371759e-05,-2.425744e-06,-7.004971e-05,2
1.8804029e-05,2.114476e-06,-2.3410607e-06,1.4678947e-07,8.439129e-06,4.306098e-07,9.46295e-06,-3.4232326e-05,3.9355236e-06,-5.398233e-05,-4.439904e-06,-6.5853186e-05,2
-6.877129e-06,-1.0749765e-06,-4.6909504e-06,-6.9256816e-07,3.5950648e-06,9.486966e-08,3.924353e-06,-2.8693186e-05,4.4393055e-06,-3.518322e-05,-6.957611e-06,-6.18245e-05,2
-2.9201301e-05,-6.1107708e-06,-5.5301966e-06,-6.9268043e-07,-1.7694595e-06,-4.1014036e-06,7.3565207e-07,-1.727932e-05,4.27169e-06,-1.4202064e-05,-7.964675e-06,-5.645303e-05,2
-4.967913e-05,-1.21536605e-05,-3.180307e-06,-2.3712844e-06,-4.522394e-06,-9.136926e-06,3.0859705e-06,-8.383194e-06,2.2577335e-06,4.0935024e-06,-5.950453e-06,-4.7053174e-05,2
-7.485674e-05,-2.037859e-05,-2.1732114e-06,-4.553436e-06,-4.26616e-06,-1.1654704e-05,8.121881e-06,-6.536734e-06,-2.4418123e-06,1.7353592e-05,-3.2648327e-06,-3.412848e-05,2
-0.00010557338,-2.4071589e-05,-2.1732114e-06,-4.385698e-06,-5.106403e-06,-1.1822596e-05,1.0136503e-05,-6.6189125e-07,-3.95222e-06,2.2892616e-05,-2.089858e-06,-9.454339e-06,2
-9.0467176e-05,-1.2826006e-05,2.6944163e-06,1.4611884e-07,-4.3949813e-06,-7.794259e-06,6.779951e-06,2.4179919e-05,7.639489e-08,2.7424547e-05,-2.434846e-07,3.73759e-05,2
1.561332e-05,1.3022463e-05,1.1590426e-05,6.0207326e-06,9.9962755e-08,-2.926675e-06,1.4092107e-06,6.6645895e-05,6.2870513e-06,3.6320554e-05,2.777833e-06,0.000101830316,2
0.0001458641,3.1821262e-05,1.7800847e-05,9.377607e-06,3.6598406e-06,-7.4467795e-07,-7.654216e-06,0.000100215875,1.13227625e-05,4.8741396e-05,3.4492627e-06,0.00016880246,2
0.00018547628,2.9471057e-05,1.6290205e-05,1.0048894e-05,3.972313e-06,-5.76873e-07,-2.3599458e-05,0.00010155879,1.3001489e-05,6.602987e-05,1.0994045e-06,0.0002074081,2
0.00012807162,1.6042804e-05,1.0919029e-05,8.538142e-06,5.27851e-06,2.623287e-07,-3.350213e-05,7.3024545e-05,1.0987532e-05,8.130415e-05,9.315873e-07,0.00019246983,2
5.3714186e-05,5.3001377e-06,5.8835517e-06,6.691691e-06,7.390749e-06,1.6050782e-06,-2.0745149e-05,3.1733754e-05,9.309274e-06,8.063275e-05,2.1065641e-06,0.00013556925,2
1.5780026e-05,-4.0704887e-07,4.03721e-06,6.0201846e-06,5.316675e-06,9.4390415e-08,3.4255766e-06,-8.549937e-06,9.645207e-06,6.0826547e-05,4.624334e-06,7.212254e-05,2
7.219484e-06,-2.5894021e-06,3.3658134e-06,6.3557754e-06,1.5455274e-06,-2.9269415e-06,1.987524e-05,-4.178396e-05,8.974044e-06,3.296357e-05,5.463612e-06,2.2607323e-05,2
1.8480773e-06,-3.76466e-06,1.8551701e-06,6.019968e-06,6.971859e-07,-5.109027e-06,2.5246854e-05,-6.528272e-05,8.302882e-06,5.771995e-06,2.1066603e-06,-4.919641e-06,2
-9.7337515e-06,-6.4505607e-06,-3.2686998e-07,3.8378203e-06,4.7637258e-07,-5.7804705e-06,2.5079444e-05,-6.612184e-05,6.121076e-06,-1.4537764e-05,-1.4181417e-06,-1.3983186e-05,2
-2.1483433e-05,-9.640008e-06,-3.180307e-06,1.9913716e-06,3.3329337e-07,-5.444816e-06,2.3569239e-05,-3.943368e-05,4.6106675e-06,-2.5783662e-05,-1.9216563e-06,-1.1800831e-05,2
-2.3162156e-05,-1.0479566e-05,-3.180307e-06,6.4847046e-07,2.2007434e-06,-3.094973e-06,1.9876994e-05,-9.22068e-06,3.6038061e-06,-2.83014e-05,-5.7883216e-07,-6.261491e-06,2
-1.4937778e-05,-7.122893e-06,-1.8375132e-06,-2.3034323e-08,1.523581e-06,-1.7522252e-06,1.5345506e-05,8.235775e-06,2.2612473e-06,-2.5783662e-05,-2.431008e-07,-6.2611743e-06,2
-6.5455506e-06,-6.1161077e-06,-4.019553e-06,-2.0373307e-06,-1.8659067e-06,-4.2700094e-06,9.8069195e-06,1.6124826e-05,1.5900848e-06,-1.73912e-05,-1.2501635e-06,-1.5492564e-05,2
-5.202991e-06,-6.4521173e-06,-9.894276e-06,-5.73012e-06,-4.712531e-06,-6.4520973e-06,3.26124e-06,1.6124963e-05,-4.23871e-07,-5.977452e-06,-1.7536779e-06,-2.9255883e-05,2
-6.2103213e-06,-4.7739354e-06,-1.00621255e-05,-7.0730207e-06,-5.3242534e-06,-5.1093502e-06,-2.6315246e-07,1.2264565e-05,-5.459114e-06,1.072216e-06,-3.2642884e-06,-4.2515654e-05,2
-5.5391606e-06,-4.1016452e-07,-7.2086887e-06,-5.730331e-06,-4.5407633e-06,-2.4238084e-06,1.0800857e-06,1.1257609e-05,-9.990809e-06,2.2471606e-06,-5.2784467e-06,-5.0068546e-05,2
-2.0145633e-06,4.792852e-06,-9.894276e-06,-2.7091492e-06,-6.2645363e-06,-1.4167617e-06,4.1018156e-06,1.29362425e-05,-8.312082e-06,2.0793116e-06,-4.9427163e-06,-4.922898e-05,2
-8.398558e-07,5.463939e-06,-1.5433301e-05,-2.3667775e-08,-7.6623555e-06,-2.4239034e-06,2.0880657e-06,6.7259602e-06,-4.115615e-06,-1.109824e-06,-3.5998894e-06,-4.2850384e-05,2
-5.875571e-06,9.31702e-07,-1.6272548e-05,9.833249e-07,-5.1787706e-06,-2.0882533e-06,-2.2755694e-06,-1.2744409e-05,-3.1082852e-06,-6.4809997e-06,-2.5927616e-06,-3.630394e-05,2
-1.3261177e-05,-4.7754816e-06,-1.3251261e-05,-3.5957416e-07,-3.7789957e-06,9.373868e-08,-2.9465211e-06,-3.7418104e-05,-2.1009555e-06,-7.991643e-06,-2.0891816e-06,-3.0093192e-05,2
-1.7457645e-05,-6.6221305e-06,-1.1069222e-05,-1.3667739e-06,-2.9787266e-06,1.1007863e-06,-5.9618907e-07,-5.1685147e-05,1.2562647e-06,-5.977452e-06,-7.463548e-07,-2.438599e-05,2
-1.7961436e-05,-6.4545893e-06,-8.551483e-06,-8.633281e-07,-7.744082e-07,5.971888e-07,-5.9574353e-07,-4.6649522e-05,5.4527304e-06,-3.963261e-06,-7.492377e-08,-2.0021584e-05,2
-1.6786731e-05,-3.6014594e-06,-4.523101e-06,9.829108e-07,2.4115798e-07,1.939934e-06,-4.2744847e-07,-3.3221437e-05,6.6279094e-06,-3.963261e-06,-4.105897e-07,-1.7167817e-05,2
-1.3933536e-05,4.266147e-07,-1.5902077e-07,1.3185063e-06,-1.6211499e-07,2.7791318e-06,1.7550392e-06,-2.398958e-05,3.7747077e-06,-5.977452e-06,-7.4857574e-08,-1.5824693e-05,2
-6.548412e-06,7.6200814e-07,2.5265672e-06,1.4862529e-06,-1.7533165e-06,2.6134362e-07,1.4197884e-06,-9.8900955e-06,-4.6175187e-06,-1.1684326e-05,4.287236e-07,-1.5152965e-05,2
1.6759597e-06,-1.08464e-06,3.0301146e-06,1.654e-06,-9.1439307e-07,-1.7528969e-06,7.744012e-08,7.902074e-06,-1.233835e-05,-1.7559049e-05,1.4358509e-06,-1.783822e-05,2
4.5291536e-06,-1.4206448e-06,2.8622655e-06,2.9966925e-06,1.3296736e-07,9.326403e-07,-5.935076e-07,1.02521135e-05,-1.0659622e-05,-2.0412486e-05,1.4358842e-06,-2.3209062e-05,2
2.6825676e-06,-5.817032e-07,3.5336625e-06,2.8287423e-06,-4.0777851e-07,5.296671e-06,-2.9429457e-06,-3.1756726e-06,-5.1203624e-06,-2.1419582e-05,1.6037686e-06,-2.690141e-05,2
5.0028325e-07,7.607857e-07,4.205059e-06,1.1501493e-06,2.9835473e-07,5.6323192e-06,-4.620991e-06,-1.4253569e-05,-2.7702374e-06,-2.0748184e-05,2.610896e-06,-3.0258061e-05,2
-2.0177e-06,1.599726e-06,2.5265672e-06,1.4295176e-07,2.7505575e-07,5.6322688e-06,-1.9349523e-06,-1.6603304e-05,-7.301931e-06,-2.0244637e-05,4.1215735e-06,-3.1936215e-05,2
-4.1999856e-06,-7.9070205e-08,5.1237623e-07,-1.1999405e-06,-1.4390897e-06,8.653505e-06,4.947317e-06,-1.4756806e-05,-1.2672872e-05,-2.5783662e-05,5.128702e-06,-3.2439428e-05,2
-3.5288358e-06,-4.150721e-07,1.3516224e-06,-2.5428342e-06,-4.0272835e-06,7.478509e-06,1.4179474e-05,-7.203434e-06,-1.216909e-05,-3.2161934e-05,4.457339e-06,-3.1264142e-05,2
8.349982e-07,1.5988144e-06,4.205059e-06,-2.0393868e-06,-4.591744e-06,6.4713627e-06,2.525798e-05,8.238853e-06,-7.4690743e-06,-2.7462154e-05,1.1003875e-06,-2.7235421e-05,2
6.877323e-06,4.7876474e-06,7.0584965e-06,-1.03239e-06,-3.1577213e-06,8.317654e-06,3.0293902e-05,3.073081e-05,-4.4475532e-06,-1.5377009e-05,-1.5851657e-06,-2.3878094e-05,2
1.1073305e-05,6.2979884e-06,6.722798e-06,-3.0466808e-06,-1.8242414e-06,1.1338888e-05,2.3916087e-05,5.4565564e-05,-3.2723738e-06,-7.991643e-06,-2.4243789e-06,-2.5556245e-05,2
1.0569509e-05,4.787042e-06,3.1979641e-06,-5.7323664e-06,-7.0444236e-07,1.3017328e-05,8.306563e-06,6.984e-05,-5.9577255e-06,-4.802507e-06,-7.45853e-07,-2.9584282e-05,2
4.862386e-06,5.625986e-06,6.8022547e-07,-4.7253684e-06,-8.454547e-07,1.3520824e-05,-8.645758e-06,7.840047e-05,-1.3007158e-05,2.2053371e-05,1.93977e-06,-3.1598127e-05,2
-1.0076448e-05,1.4353846e-05,5.1237623e-07,-1.87203e-06,-3.1999159e-07,1.2849373e-05,-2.2241093e-05,8.947869e-05,-2.1063686e-05,7.4925876e-05,2.946898e-06,-2.991929e-05,2
-3.542193e-05,3.1809865e-05,4.03721e-06,-2.0399764e-06,5.104979e-07,9.995884e-06,-3.701137e-05,9.6024974e-05,-2.391689e-05,0.00010077466,2.7790832e-06,-2.7065507e-05,2
-6.429225e-05,4.641245e-05,8.233441e-06,-3.7185664e-06,-8.6328845e-07,5.2960527e-06,-4.5906923e-05,8.780053e-05,-1.8209777e-05,7.559728e-05,1.4363233e-06,-2.9582898e-05,2
-9.769451e-05,4.62443e-05,1.075118e-05,-3.7186633e-06,-2.3651837e-06,1.0997697e-06,-4.1878087e-05,6.39661e-05,-8.306438e-06,2.7256698e-05,7.649615e-07,-3.629652e-05,2
-0.00014553178,3.6005196e-05,7.562044e-06,-4.7258536e-06,-2.476443e-06,-1.7537216e-06,-3.7849248e-05,1.6632788e-05,-2.2636295e-06,-1.2355723e-05,7.649958e-07,-3.361058e-05,2
-0.00018363382,2.6437488e-05,-8.304178e-07,-6.7401425e-06,-6.5601475e-06,-6.4535543e-06,-4.0534378e-05,-5.5206518e-05,-1.9276958e-06,-3.4847522e-05,4.2933212e-07,-1.5314663e-05,2
-0.0001666813,1.9219671e-05,-8.551483e-06,-8.0830305e-06,-1.4323847e-05,-1.3838974e-05,-4.070177e-05,-0.00012368883,-3.4381032e-06,-4.0554398e-05,-1.2491265e-06,-3.229165e-06,2
-9.114939e-05,-2.0974812e-06,-1.1572769e-05,-7.5795783e-06,-1.656333e-05,-1.6860315e-05,-2.9119714e-05,-0.00013778801,-3.4378677e-06,-2.6790758e-05,-3.095433e-06,-5.914399e-06,2
3.3058786e-05,-5.5809534e-05,-6.7051415e-06,-3.5512924e-06,-1.005202e-05,-1.1657041e-05,-8.30595e-06,-7.66907e-05,-5.84194e-07,1.9114623e-06,-2.9275495e-06,-1.0949521e-05,2
0.00019436165,-0.00010515752,2.0230193e-06,3.83398e-06,1.2534643e-06,-3.6003328e-06,9.990076e-06,5.723445e-06,5.6264626e-06,2.9438737e-05,-2.759666e-06,-8.767126e-06,2
0.00029070684,-9.743674e-05,8.065592e-06,8.030117e-06,8.095008e-06,-7.4695043e-07,1.3851068e-05,1.3276835e-05,9.65508e-06,3.548131e-05,-4.270275e-06,-4.066991e-06,2
0.00024035183,-4.0871848e-05,8.065592e-06,4.673039e-06,4.591189e-06,-2.7611975e-06,2.5573894e-07,-6.964051e-05,9.151769e-06,2.3060466e-05,-5.2773344e-06,-7.096481e-07,2
0.000114968185,1.36788585e-05,6.2192503e-06,-1.7053268e-06,-2.95172e-06,-5.6146905e-06,-2.1899898e-05,-0.00017135698,8.816305e-06,1.1814567e-05,-4.6059035e-06,2.3119978e-06,2
3.0204063e-05,3.0799183e-05,6.2192503e-06,-4.223158e-06,-5.369437e-06,-6.957538e-06,-3.9523606e-05,-0.00021818675,9.655788e-06,7.114789e-06,-3.2630737e-06,4.3265477e-06,2
6.2013623e-06,1.6363852e-05,5.2121545e-06,-3.7197037e-06,-2.9333464e-06,-7.964689e-06,-4.6908513e-05,-0.00017068522,1.2005913e-05,2.0793116e-06,-3.5987377e-06,3.823362e-06,2
3.851214e-06,-3.1069537e-06,2.1908686e-06,-1.7056053e-06,-2.4294363e-06,-1.1321729e-05,-4.7915146e-05,-6.259013e-05,9.48841e-06,-1.10129295e-05,-4.270101e-06,-3.7250692e-07,2
4.939688e-07,-1.2506806e-05,-4.947193e-07,-2.7205461e-08,-4.4031226e-06,-1.2328884e-05,-4.2375657e-05,2.334886e-05,2.774676e-06,-2.7126456e-05,-1.5844768e-06,-4.232677e-06,2
-3.5346739e-06,-1.1332158e-05,8.828522e-09,6.4410074e-07,-4.4405474e-06,-6.286366e-06,-2.525457e-05,4.4498047e-05,-2.0927162e-06,-3.467967e-05,2.1082412e-06,-4.4001617e-06,2
-4.70988e-06,-7.807617e-06,1.6873208e-06,3.0831032e-07,-3.3990154e-06,9.3109423e-07,-2.7623068e-06,2.955965e-05,-4.10667e-06,-3.4176122e-05,2.6118234e-06,-1.3785098e-06,2
-3.870895e-06,-4.6187765e-06,2.8622655e-06,-2.7479777e-08,-1.7438828e-06,4.2880224e-06,1.0833943e-05,1.7978238e-05,-3.6028873e-06,-3.350473e-05,1.6047647e-06,2.650239e-06,2
-1.8569666e-06,-1.5977843e-06,5.8835517e-06,6.438275e-07,1.2426829e-06,6.302156e-06,1.3519997e-05,1.7978424e-05,-3.2669534e-06,-3.0147743e-05,1.2691e-06,4.1612493e-06,2
1.4997553e-06,1.4232082e-06,9.911933e-06,2.490078e-06,3.8571475e-06,8.148442e-06,1.200982e-05,1.9489253e-05,-3.2667174e-06,-1.8398296e-05,-1.2486026e-06,2.4831263e-06,2
2.1708884e-06,1.5907641e-06,1.2429672e-05,4.33633e-06,6.8165136e-06,7.644835e-06,1.150674e-05,2.1000085e-05,-1.0844403e-06,-3.291864e-06,-3.430606e-06,1.1407011e-06,2
4.921311e-07,7.982842e-08,1.2765371e-05,4.5040906e-06,9.930874e-06,6.469834e-06,1.3857093e-05,2.2846616e-05,-7.7109334e-08,3.0864069e-06,-3.5984206e-06,-7.052689e-07,2
-1.186627e-06,-2.102504e-06,9.408385e-06,2.489809e-06,1.0089163e-05,6.8054746e-06,1.2514768e-05,2.2678956e-05,-1.7553663e-06,1.2400653e-06,-2.4234412e-06,-1.2084439e-06,2
-2.5296845e-06,-3.4455888e-06,6.2192503e-06,-1.5386619e-06,7.849816e-06,7.308963e-06,1.0501044e-05,2.2846998e-05,-1.7551303e-06,-2.1169196e-06,-9.1276246e-07,4.7042127e-07,2
-4.040595e-06,-3.7815794e-06,4.205059e-06,-2.7136934e-06,7.3751935e-06,7.476754e-06,1.0165814e-05,2.7211268e-05,-7.477982e-07,-3.6275624e-06,9.43702e-08,4.707955e-07,2
-5.887203e-06,-3.4461716e-06,-1.1661161e-06,-2.3780838e-06,7.397875e-06,7.3088463e-06,1.0166283e-05,3.258264e-05,-7.475621e-07,-3.963261e-06,2.108596e-06,-2.0022618e-07,2
-6.5588692e-06,-2.1036692e-06,-5.6980457e-06,-2.2103227e-06,6.714736e-06,7.980183e-06,9.831054e-06,3.476488e-05,5.9546807e-07,-1.109824e-06,2.2764807e-06,1.6464912e-06,2
-4.377095e-06,-9.2901365e-07,-4.1874027e-06,-6.9976727e-07,3.4961577e-06,9.994316e-06,9.999373e-06,3.291873e-05,2.2741967e-06,1.4079145e-06,1.7729697e-06,5.675252e-06,2
-6.846809e-07,9.1703737e-07,3.4452697e-07,1.3143366e-06,9.890668e-07,1.1337051e-05,1.1174787e-05,2.8554847e-05,2.77798e-06,1.5757638e-06,1.1016076e-06,6.514875e-06,2
2.6720338e-06,3.6023348e-06,1.6873208e-06,1.9856468e-06,2.5532029e-06,9.826348e-06,1.36929975e-05,2.284817e-05,2.274669e-06,1.5757638e-06,1.4373416e-06,4.333215e-06,2
4.518106e-06,4.9448395e-06,-4.947193e-07,1.6498612e-06,4.5125503e-06,6.637153e-06,1.587551e-05,1.6805798e-05,5.964127e-07,1.743613e-06,1.9409267e-06,3.3264998e-06,2
4.8535344e-06,7.29444e-06,-2.6767593e-06,-1.371512e-06,3.633297e-06,4.119353e-06,1.5540283e-05,6.902892e-06,-1.9210902e-06,-2.7057786e-07,1.9409626e-06,7.0195647e-06,2
2.8390712e-06,6.9584535e-06,-4.1874027e-06,-2.3786918e-06,1.7270675e-06,4.1192925e-06,1.1344527e-05,-4.5106535e-06,-2.088703e-06,-6.4809997e-06,3.451642e-06,1.1048331e-05,2
-2.5323745e-06,4.9439745e-06,-4.8587995e-06,-7.0028517e-07,1.1880868e-06,4.287081e-06,7.820166e-06,-8.538833e-06,-7.427578e-08,-1.2691421e-05,4.123075e-06,1.1720111e-05,2
-5.889632e-06,2.2580998e-06,-4.6909504e-06,9.781228e-07,7.533394e-08,3.615624e-06,8.324186e-06,-3.167453e-06,2.611548e-06,-1.6048407e-05,3.2838655e-06,1.25597435e-05,2
-8.575494e-06,1.5864147e-06,-3.851704e-06,9.780381e-07,-6.3766987e-07,3.112016e-06,8.156811e-06,6.2323093e-06,5.633071e-06,-1.8398296e-05,2.444655e-06,1.3735073e-05,2
-1.0589959e-05,-9.236409e-08,-3.3481563e-06,-3.6484133e-07,5.570502e-07,3.7833506e-06,3.4575046e-06,1.5632073e-05,3.283418e-06,-1.974109e-05,1.6054463e-06,1.27283665e-05,2
-1.1429478e-05,-2.4425394e-06,-3.851704e-06,-2.3791154e-06,4.0135552e-07,3.9511383e-06,-3.2559904e-06,2.2346248e-05,-1.0804257e-06,-1.8398296e-05,7.6623576e-07,1.2560906e-05,2
-1.2604698e-05,-2.6106745e-06,-3.5160053e-06,-2.043501e-06,-1.0095407e-06,2.7761325e-06,-8.794537e-06,1.966087e-05,-3.4300795e-06,-6.31315e-06,-2.4082368e-07,1.0043555e-05,2
-1.327637e-05,-2.443111e-06,-1.5018146e-06,6.420037e-07,-1.2601296e-06,2.5833145e-07,-1.5340183e-05,6.7366877e-06,-2.087049e-06,1.752144e-05,-4.0863605e-07,7.022659e-06,2
-1.3948044e-05,-3.7861903e-06,-1.3339654e-06,1.9847148e-06,5.872808e-07,5.9396723e-07,-1.8360994e-05,-1.0048026e-05,2.6307623e-07,3.6488404e-05,2.627986e-07,5.344559e-06,2
-1.4619717e-05,-3.4507761e-06,-3.180307e-06,1.3132352e-06,2.9779042e-06,2.2723968e-06,-1.4835681e-05,-1.8272427e-05,9.3470976e-07,4.9580645e-05,2.1091764e-06,5.344952e-06,2
-1.2605803e-05,-1.6047194e-06,-3.0124577e-06,9.774549e-07,4.954432e-06,4.454374e-06,-4.2607007e-06,-9.208355e-06,1.6063433e-06,5.092344e-05,2.6127602e-06,5.3453455e-06,2
-7.2349058e-06,-5.979074e-07,-8.304178e-07,9.77373e-07,6.331373e-06,5.629256e-06,7.824924e-06,1.4962149e-05,3.2850721e-06,3.128508e-05,2.7806461e-06,2.6601526e-06,2
-3.8781995e-06,7.3205015e-08,8.480747e-07,-1.9765447e-07,5.636569e-06,3.950701e-06,1.4203671e-05,3.2922235e-05,4.292404e-06,-4.2989595e-06,3.452081e-06,6.463575e-07,2
-5.221272e-06,-5.984742e-07,-1.5902077e-07,-1.2048297e-06,4.9313694e-06,-4.134424e-07,1.0847165e-05,2.8054823e-05,2.9498465e-06,-3.9883e-05,4.794912e-06,-1.9249151e-07,2
-8.914235e-06,-1.7737029e-06,-2.3410607e-06,-1.0370615e-06,4.1881685e-06,-3.434792e-06,-1.0696501e-06,7.241734e-06,3.1179318e-06,-6.23748e-05,5.130647e-06,3.114536e-07,2
-9.753761e-06,1.5829997e-06,-3.5160053e-06,1.3780108e-07,3.957419e-06,-2.2599108e-06,-1.0972275e-05,-1.40749025e-05,4.460962e-06,-6.992801e-05,3.2843432e-06,3.1652899e-06,2
-8.579098e-06,5.9468e-06,-1.3339654e-06,1.984064e-06,3.5487903e-06,-1.42073e-06,-1.0132547e-05,-2.548843e-05,6.978937e-06,-6.522823e-05,1.1023393e-06,5.68343e-06,2
-8.915078e-06,6.9536122e-06,1.1837732e-06,3.6624763e-06,4.8817446e-06,-1.5886433e-06,7.781362e-07,-2.548821e-05,9.329063e-06,-4.793976e-05,1.2702255e-06,7.3623232e-06,2
-1.0929551e-05,3.596346e-06,6.8022547e-07,3.3266979e-06,2.975961e-06,-2.4279527e-06,1.5213652e-05,-2.3305947e-05,8.993601e-06,-2.1419582e-05,1.6059628e-06,8.0341215e-06,2
-1.44546675e-05,1.2461762e-06,-1.8375132e-06,6.410318e-07,-2.3641828e-06,-3.7708116e-06,2.6292184e-05,-2.7334107e-05,7.651043e-06,4.7648996e-06,-2.4034284e-07,9.041622e-06,2
-1.7811934e-05,-1.1039931e-06,-4.6909504e-06,-2.380333e-06,-8.383349e-06,-4.7779736e-06,3.1160296e-05,-3.220151e-05,6.979883e-06,2.6921e-05,-1.5830984e-06,1.0552668e-05,2
-1.7644368e-05,-5.804052e-06,-5.865895e-06,-4.2267534e-06,-9.74086e-06,-5.281586e-06,2.7300244e-05,-2.716581e-05,5.973024e-06,4.9077098e-05,-5.7596696e-07,9.713828e-06,2
-1.663756e-05,-7.818522e-06,-6.369443e-06,-4.058982e-06,-6.747429e-06,-6.2887475e-06,2.1761702e-05,-1.457689e-05,6.6446573e-06,5.6462464e-05,-5.759294e-07,6.35725e-06,2
-1.4623653e-05,-7.818801e-06,-5.865895e-06,-3.5555126e-06,-3.377936e-06,-7.799455e-06,2.1594336e-05,-7.1912964e-06,7.148442e-06,3.74955e-05,-1.918684e-06,3.000673e-06,2
-1.29454465e-05,-6.6441357e-06,-4.1874027e-06,-4.059137e-06,-2.9918508e-06,-1.0149411e-05,2.3273316e-05,-5.848274e-06,7.316528e-06,4.2613515e-06,-3.429289e-06,1.3225887e-06,2
-1.0260146e-05,-5.1337706e-06,-3.5160053e-06,-3.052119e-06,-3.8854155e-06,-1.0317326e-05,1.8741872e-05,-2.1553617e-06,6.8132163e-06,-2.175528e-05,-4.6041973e-06,-1.0268893e-06,2
-6.0642005e-06,-3.1198576e-06,-2.8446086e-06,-3.0909383e-08,-2.580025e-06,-8.471049e-06,6.4893625e-06,8.922919e-06,5.6385084e-06,-2.9812045e-05,-3.932764e-06,-3.5442176e-06,2
-2.875354e-06,-6.023961e-07,-2.1732114e-06,1.9832064e-06,-6.2819294e-07,-8.471116e-06,-4.0846535e-06,2.7722266e-05,4.295951e-06,-2.5112266e-05,-2.2542329e-06,-7.740036e-06,2
-2.3720931e-06,9.079698e-07,-2.0053624e-06,6.403366e-07,-4.9635827e-07,-1.149247e-05,-1.4658668e-05,4.8871505e-05,4.1283383e-06,-1.8398296e-05,-2.254195e-06,-1.3782196e-05,2
-8.6173895e-07,2.5861862e-06,-1.1661161e-06,-1.5417799e-06,2.398339e-07,-1.3674578e-05,-2.4057737e-05,6.3978165e-05,4.464273e-06,-1.5377009e-05,-1.4149099e-06,-1.7306616e-05,2
2.1592577e-06,2.2502109e-06,-6.625685e-07,-2.3810999e-06,-1.3883715e-07,-1.1828302e-05,-1.5664787e-05,6.9349575e-05,4.9680575e-06,-1.6719803e-05,7.671681e-07,-1.8145447e-05,2
4.0053087e-06,-1.1070499e-06,-1.5018146e-06,-1.5419297e-06,-4.5597733e-07,-8.471385e-06,8.505991e-06,7.1364004e-05,6.311088e-06,-1.6719803e-05,1.4386022e-06,-1.9823523e-05,2
4.676416e-06,-2.1144215e-06,-2.3410607e-06,-2.0455511e-06,1.740078e-06,-5.450168e-06,2.62985e-05,7.807821e-05,8.996912e-06,-8.998738e-06,-4.0770067e-07,-2.4522884e-05,2
6.186767e-06,-6.040524e-07,-2.50891e-06,-5.066912e-06,2.3430723e-06,-3.1003467e-06,2.7473932e-05,8.579951e-05,7.4865056e-06,2.7507085e-06,-1.9183044e-06,-3.073289e-05,2
7.193571e-06,-1.107875e-06,-1.8375132e-06,-7.920422e-06,9.1645285e-07,-2.093319e-06,1.9921206e-05,8.093213e-05,4.2976067e-06,1.0807472e-05,-1.9182662e-06,-3.5935795e-05,2
8.200374e-06,-2.2830943e-06,-1.5902077e-07,-7.249099e-06,7.8996514e-08,-2.9326345e-06,1.2032783e-05,5.357294e-05,3.9621445e-06,1.4835854e-05,-2.086079e-06,-3.5935376e-05,2
1.0046423e-05,-1.108423e-06,8.480747e-07,-3.724338e-06,6.2350364e-07,-3.1005522e-06,6.15855e-06,6.9110934e-06,5.6408735e-06,1.752144e-05,-2.5895874e-06,-1.7639384e-05,2
1.1221075e-05,1.9125887e-06,8.828522e-09,-2.0459177e-06,1.2569885e-06,-1.7578271e-06,-2.5691177e-06,-4.495408e-05,6.1446576e-06,2.2556918e-05,-1.750302e-06,2.7512486e-05,2
1.1556479e-05,4.262207e-06,1.5194717e-06,-1.3745938e-06,9.551513e-07,-4.1510228e-07,-1.062539e-05,-8.423056e-05,6.312744e-06,2.7088849e-05,1.2710215e-06,7.4846386e-05,2
1.1220485e-05,4.261934e-06,3.5336625e-06,3.0382733e-07,-2.4323498e-07,1.4311703e-06,-1.3478336e-05,-9.71547e-05,1.9488998e-06,2.8263792e-05,1.6067601e-06,9.717076e-05,2
7.863206e-06,2.918868e-06,3.5336625e-06,3.99644e-06,-1.2832238e-06,2.1024966e-06,-1.2638596e-05,-7.885889e-05,-6.7790243e-06,2.7088849e-05,-2.395443e-07,9.062507e-05,2
1.6524875e-06,1.9114993e-06,3.5336625e-06,5.339162e-06,-2.530665e-06,7.596329e-07,-1.17988575e-05,-5.1499217e-05,-1.2149963e-05,2.3899713e-05,-1.9179965e-06,6.6623055e-05,2
-4.55823e-06,9.0413397e-07,2.0230193e-06,4.667695e-06,-4.9444106e-06,1.0952627e-06,-9.616324e-06,-3.6392536e-05,-1.0471234e-05,1.6178648e-05,-2.9250539e-06,4.194965e-05,2
-8.754759e-06,-4.3893093e-07,1.7667774e-07,5.0033223e-06,-5.0154968e-06,2.9415335e-06,-6.7623914e-06,-2.9006922e-05,-9.463902e-06,8.121884e-06,-2.7571662e-06,2.6507945e-05,2
-8.587208e-06,-3.1247894e-06,2.1908686e-06,6.3460466e-06,-2.3400585e-06,2.437914e-06,-5.2512537e-06,-1.8935716e-05,-1.282065e-05,3.0864069e-06,-2.2535803e-06,2.1137203e-05,2
-4.223425e-06,-5.1392503e-06,5.8835517e-06,7.68877e-06,1.4589187e-06,9.272002e-07,-3.5722676e-06,-4.5004304e-06,-1.58417e-05,1.4079145e-06,-1.5821432e-06,2.0466237e-05,2
8.117532e-07,-3.964575e-06,7.2263456e-06,6.6816056e-06,2.4991755e-06,9.271292e-07,-4.914565e-06,8.927762e-06,-1.1645232e-05,-9.4197486e-07,-2.3931128e-07,2.0634518e-05,2
4.3362875e-06,2.3138571e-07,5.0443055e-06,5.6744416e-06,1.3483179e-06,1.5984559e-06,-7.4318077e-06,1.5641985e-05,-3.084684e-06,-4.2989595e-06,1.4392198e-06,1.643872e-05,2
7.5251232e-06,4.595198e-06,3.869361e-06,6.8493173e-06,-1.8000702e-07,1.9340825e-06,-7.934859e-06,2.1013417e-05,4.3009186e-06,-5.138206e-06,1.9428078e-06,7.039595e-06,2
9.371164e-06,6.2734225e-06,3.1979641e-06,5.338605e-06,-1.213332e-06,5.9121686e-07,-7.598663e-06,2.8902585e-05,8.665235e-06,-1.4455226e-06,6.0005306e-07,-6.387908e-06,2
1.0210109e-05,4.2589636e-06,1.0159239e-06,1.6458545e-06,-2.3739447e-06,-1.5908951e-06,-8.940959e-06,3.175628e-05,8.329774e-06,2.7507085e-06,2.6439426e-07,-2.0486807e-05,2
3.495837e-06,-1.0538496e-07,-8.304178e-07,-2.046896e-06,-3.3337733e-06,-1.5909671e-06,-1.129035e-05,2.672106e-05,5.980121e-06,3.7578038e-06,2.1107746e-06,-3.0557323e-05,2
-2.4031739e-05,-3.126938e-06,1.8551701e-06,-6.075344e-06,-3.5553674e-06,-7.517926e-07,-1.2800496e-05,1.799316e-05,3.9661663e-06,2.7507085e-06,3.789307e-06,-3.223538e-05,2
-7.220477e-05,-3.1272048e-06,4.7086073e-06,-8.0896025e-06,-3.422341e-06,9.2662583e-07,-1.1625051e-05,9.936656e-06,4.6378e-06,1.743613e-06,3.7893462e-06,-2.8542256e-05,2
-0.000118027914,-4.805964e-06,-2.0053624e-06,-7.753971e-06,-1.6408588e-06,2.101498e-06,-9.9460585e-06,-9.732832e-07,5.812981e-06,7.365176e-07,4.1250837e-06,-2.7199021e-05,2
-0.00015193377,-1.5212882e-05,-1.3251261e-05,-6.0755438e-06,2.5188197e-06,3.276371e-06,-1.0281256e-05,-2.296127e-05,3.6311774e-06,4.0081912e-07,3.7894254e-06,-2.8541373e-05,2
-0.00016217289,-2.9312485e-05,-1.8958135e-05,-5.0685153e-06,3.2576133e-06,4.6190917e-06,-1.0448605e-05,-5.569161e-05,-1.0683641e-06,-2.7057786e-07,2.7823678e-06,-2.384115e-05,2
-8.915877e-05,-2.4277271e-05,-1.6608246e-05,-3.5579378e-06,4.8917336e-06,7.808152e-06,-6.9232706e-06,-6.3915955e-05,-5.7679067e-06,-1.0272856e-07,2.1110116e-06,-8.734276e-06,2
8.271854e-05,4.928231e-06,-7.3765377e-06,3.0253022e-07,9.608877e-06,1.1332913e-05,4.826678e-06,-2.3631874e-05,-5.76767e-06,1.743613e-06,2.614598e-06,2.3442196e-06,2
0.00023227191,3.3462336e-05,2.1908686e-06,1.6452595e-06,9.4569195e-06,1.0493593e-05,1.3555339e-05,2.554822e-05,-4.4246394e-06,2.0793116e-06,2.950336e-06,-3.3622096e-06,2
0.0002425104,3.7154758e-05,5.547853e-06,-8.725427e-07,3.1777672e-06,6.297287e-06,7.5132675e-06,3.9815674e-05,-7.1099907e-06,-2.7057786e-07,1.4397327e-06,-1.3097018e-05,2
0.00014985733,2.8090637e-05,4.540758e-06,-3.5581957e-06,-2.1104686e-06,1.933133e-06,-4.5713737e-06,2.4709512e-05,-9.627493e-06,-2.9561659e-06,9.6980635e-08,-8.061093e-06,2
5.854703e-05,1.8019418e-05,6.8022547e-07,-2.7190113e-06,-1.2686914e-06,1.5973603e-06,-9.942045e-06,6.749912e-06,-1.0298654e-05,-5.977452e-06,1.1041145e-06,1.2416963e-05,2
1.1381084e-05,1.09694865e-05,-9.22288e-06,-1.0405824e-06,6.1882497e-07,2.4365304e-06,-1.0445088e-05,-3.3207712e-06,-1.0130569e-05,-8.66304e-06,3.7897435e-06,3.541276e-05,2
-5.3652116e-07,7.6122415e-06,-1.9629533e-05,-2.0140034e-07,9.1635246e-07,1.9329084e-06,-1.4640816e-05,-1.0873714e-05,-9.291085e-06,-7.6559445e-06,4.4611797e-06,4.6994806e-05,2
1.8130578e-06,3.2478988e-06,-2.5672105e-05,-3.361383e-08,1.6213313e-06,3.107779e-06,-2.101858e-05,-2.0944395e-05,-7.4445065e-06,-8.66304e-06,4.1255216e-06,4.078484e-05,2
5.67328e-06,-5.3126746e-06,-2.684705e-05,-1.37647e-06,4.115607e-06,5.1218935e-06,-2.3367966e-05,-2.9672281e-05,-6.940723e-06,-8.998738e-06,2.6149178e-06,2.2825423e-05,2
7.1836116e-06,-9.173467e-06,-2.1979422e-05,-2.0479276e-06,6.601347e-06,5.1218176e-06,-1.7660584e-05,-2.9336306e-05,-5.5976925e-06,-6.8166983e-06,1.1043151e-06,1.1733247e-06,2
6.8476015e-06,-6.4881397e-06,-1.2915563e-05,6.375989e-07,7.5352423e-06,5.625289e-06,-1.2624602e-05,-2.2118513e-05,-3.7511138e-06,-5.8096025e-06,2.2793004e-06,-1.7625334e-05,2
6.67944e-06,-1.1172234e-06,-2.6767593e-06,4.833769e-06,7.4704544e-06,7.6394035e-06,-1.2624096e-05,-2.111114e-05,-2.0723855e-06,-6.6488487e-06,5.8041746e-06,-2.9542174e-05,2
7.854072e-06,4.253693e-06,5.547853e-06,7.0157475e-06,8.911857e-06,9.485668e-06,-1.7659066e-05,-2.4971394e-05,-1.7364509e-06,-5.8096025e-06,5.636366e-06,-3.7934176e-05,2
7.51806e-06,6.267625e-06,9.911933e-06,6.6799894e-06,1.0915557e-05,7.1357035e-06,-2.0679845e-05,-2.4971114e-05,-6.4359933e-06,-3.963261e-06,2.9508176e-06,-4.867607e-05,2
8.021293e-06,4.7567223e-06,1.2261823e-05,6.344231e-06,1.0012668e-05,3.2750945e-06,-1.6986654e-05,-1.892826e-05,-1.38211235e-05,-3.6275624e-06,9.742311e-08,-5.8578717e-05,2
8.5245265e-06,2.5744253e-06,1.4611712e-05,6.3441717e-06,6.187442e-06,2.1000712e-06,-6.243794e-06,-1.1206913e-05,-1.6674323e-05,-5.473904e-06,-1.7488783e-06,-5.8913956e-05,2
7.517116e-06,2.5741674e-06,1.8136547e-05,2.9871271e-06,2.6873379e-06,1.932145e-06,9.198845e-06,-8.521042e-06,-1.0463666e-05,-7.6559445e-06,-1.7488377e-06,-4.9346087e-05,2
4.1598155e-06,4.5881e-06,2.3507722e-05,-2.0484088e-06,-1.8887524e-08,1.0928225e-06,2.1955899e-05,-1.2213441e-05,-1.7352688e-06,-7.991643e-06,-2.252346e-06,-3.843542e-05,2
4.6681515e-07,8.112677e-06,3.3075128e-05,-3.0555634e-06,-2.057647e-06,8.564861e-08,2.6320487e-05,-1.2548854e-05,2.6290481e-06,-3.291864e-06,-2.2523052e-06,-2.6014115e-05,2
-3.2261858e-06,9.958762e-06,4.0628343e-05,-3.4335475e-08,-1.7058304e-06,-3.1035654e-06,2.5146055e-05,-3.3168594e-06,1.7900384e-06,4.0935024e-06,-1.9165645e-06,-1.1075069e-05,2
-5.5763912e-06,7.6086176e-06,3.441792e-05,2.9868938e-06,-2.3330863e-06,-6.1249307e-06,2.0111087e-05,4.068795e-06,-2.5738057e-06,1.1143171e-05,-7.018258e-08,2.3533366e-06,2
-6.0802568e-06,3.915677e-06,1.9982888e-05,2.6511373e-06,-4.5682523e-06,-6.292858e-06,1.2558382e-05,8.265314e-06,-4.4199105e-06,1.8528537e-05,1.1048023e-06,1.2592607e-05,2
-5.5770283e-06,4.251122e-06,9.576235e-06,-2.0235672e-07,-5.439765e-06,-4.110896e-06,1.0712551e-05,1.6322369e-05,-2.069785e-06,2.641745e-05,-2.3795069e-07,1.20895265e-05,2
-7.5915386e-06,5.92936e-06,4.8764564e-06,-3.0558504e-06,-5.6749996e-06,-4.782373e-06,1.1552312e-05,2.3540175e-05,6.1603936e-07,2.9774435e-05,-2.4199496e-06,3.697534e-06,2
-9.438199e-06,4.5863108e-06,2.5265672e-06,-2.5523577e-06,-7.2226967e-06,-7.468039e-06,6.853044e-06,2.538681e-05,2.2947681e-06,2.4738958e-05,-1.5806615e-06,3.362304e-06,2
-8.599275e-06,5.576758e-07,3.4452697e-07,-2.7202627e-06,-7.9919455e-06,-8.643061e-06,1.1466849e-06,2.4380008e-05,9.522101e-07,1.1814567e-05,-5.735264e-07,1.2090936e-05,2
-8.935293e-06,-1.7924687e-06,-3.2686998e-07,-2.7203182e-06,-8.709148e-06,-7.636047e-06,3.0794948e-07,1.800203e-05,4.488992e-07,-5.306055e-06,-1.5805792e-06,2.3169458e-05,2
-1.3299696e-05,-1.1213237e-06,-1.5902077e-07,-1.3775815e-06,-9.364349e-06,-7.4682775e-06,4.8403954e-06,6.2528784e-06,2.6311752e-06,-1.5041312e-05,-1.580538e-06,2.719831e-05,2
-1.8503346e-05,-6.180283e-07,-1.1661161e-06,-2.026914e-07,-1.2535705e-05,-8.475452e-06,1.155488e-05,5.9174768e-06,3.1349591e-06,-1.73912e-05,-4.055526e-07,1.108526e-05,2
-1.8671517e-05,-1.7932265e-06,-3.180307e-06,-7.062929e-07,-1.428328e-05,-9.48263e-06,1.5080229e-05,3.7809128e-05,1.6245523e-06,-1.940539e-05,2.1122278e-06,-1.9798526e-05,2
-1.2461418e-05,-1.9613271e-06,-3.851704e-06,-3.391936e-06,-1.3026474e-05,-1.0154106e-05,1.759848e-05,9.0178386e-05,2.8199415e-07,-1.9069692e-05,2.1122692e-06,-4.2961245e-05,2
-5.5799223e-06,-1.1523648e-07,-2.1732114e-06,-6.077576e-06,-9.8340515e-06,-7.468599e-06,2.4312967e-05,0.00012425208,1.6250248e-06,-1.6719803e-05,-5.732783e-07,-5.101753e-05,2
1.2662606e-07,-4.5118534e-07,1.7667774e-07,-5.741931e-06,-6.099985e-06,-1.0904103e-06,3.3041644e-05,0.000121063254,3.3037534e-06,-1.4202064e-05,-2.0838797e-06,-5.336694e-05,2
3.1475881e-06,-1.2906828e-06,1.5194717e-06,-4.734888e-06,-1.7743469e-06,3.7771376e-06,3.824549e-05,8.7158005e-05,2.968291e-06,-1.2187874e-05,-5.7319517e-07,-5.6723446e-05,2
2.1401675e-06,-1.1230827e-06,1.7667774e-07,-4.063545e-06,-1.4053353e-06,3.2735093e-06,3.3881926e-05,3.848203e-05,1.6257333e-06,-1.1852175e-05,-5.731535e-07,-5.8905007e-05,2
-3.5670337e-06,-2.1304284e-06,-2.8446086e-06,-3.7278992e-06,-2.9394503e-06,3.2734276e-06,2.3979337e-05,-3.6478266e-06,9.545722e-07,-1.0509381e-05,-2.0837547e-06,-5.2526255e-05,2
-8.099289e-06,-3.4734703e-06,-3.180307e-06,-3.5601022e-06,-3.3062663e-06,5.2875357e-06,1.4580295e-05,-2.8992758e-05,1.4583565e-06,-7.991643e-06,-2.755109e-06,-3.59087e-05,2
-8.603165e-06,-3.641569e-06,-2.50891e-06,-4.063701e-06,-3.883729e-06,5.9588497e-06,8.370395e-06,-4.00705e-05,2.9692355e-06,-1.0341532e-05,-5.7302816e-07,-9.388035e-06,2
-1.2799723e-05,-2.1311744e-06,-3.3481563e-06,-4.063752e-06,-5.292218e-06,6.2944664e-06,6.021024e-06,-4.9805447e-05,4.1444164e-06,-1.4034215e-05,2.7839988e-06,2.334305e-05,2
-1.9010475e-05,-3.809914e-06,-4.1874027e-06,-3.5421927e-08,-3.0097253e-06,4.280193e-06,3.5038036e-06,-5.484062e-05,3.1375569e-06,-1.2020025e-05,4.7982326e-06,3.6771475e-05,2
-1.8507257e-05,-8.006393e-06,-4.523101e-06,3.3215126e-06,8.399447e-07,1.5945233e-06,-3.7131936e-06,-4.9804832e-05,1.1236017e-06,-7.4880945e-06,6.3089165e-06,1.9819186e-05,2
-1.2297162e-05,-9.181585e-06,-5.026649e-06,3.4893114e-06,2.2848817e-06,5.873443e-07,-1.29443815e-05,-4.090851e-05,2.845914e-07,-5.977452e-06,5.4697125e-06,4.3775444e-06,2
-6.7584688e-06,-4.649901e-06,-2.0053624e-06,3.992811e-06,2.490203e-06,1.5943572e-06,-1.697224e-05,-3.3522832e-05,3.4739633e-06,-6.8166983e-06,2.1127707e-06,2.3680694e-05,2
-6.0874004e-06,-1.1253129e-06,4.205059e-06,5.3355543e-06,2.1798332e-06,1.5942737e-06,-1.7978815e-05,-2.8822744e-05,6.159787e-06,-5.6417534e-06,-4.04926e-07,6.8496935e-05,2
-9.948265e-06,-2.1326546e-06,6.2192503e-06,7.517546e-06,-5.293341e-07,5.870941e-07,-1.9153238e-05,-2.6640391e-05,4.9850787e-06,-9.4197486e-07,2.665142e-07,0.000104752864,2
-1.1123541e-05,-5.4898846e-06,1.1837732e-06,7.013949e-06,-2.566394e-06,5.870103e-07,-1.831347e-05,-2.361879e-05,9.569325e-07,5.604146e-06,1.2736505e-06,0.00010626399,2
-8.7739845e-06,-9.182812e-06,-8.047935e-06,2.9855194e-06,-1.7092841e-06,-2.0986608e-06,-1.9655741e-05,-2.5129117e-05,-2.567666e-06,1.4164457e-05,1.2736929e-06,8.058355e-05,2
-7.263675e-06,-8.511659e-06,-1.7279643e-05,2.998833e-07,-1.3325812e-06,-4.112936e-06,-1.8983821e-05,-2.529665e-05,-4.078072e-06,2.1885522e-05,1.7772842e-06,5.0035484e-05,2
-7.264008e-06,-4.6513705e-06,-2.5000709e-05,-1.3786572e-06,-3.9027823e-06,-4.4487206e-06,-1.1765781e-05,-1.3882583e-05,-4.749234e-06,2.423541e-05,1.7773267e-06,2.9390521e-05,2
-8.271439e-06,-3.4766688e-06,-2.9700488e-05,-3.5607445e-06,-6.785951e-06,-5.1202014e-06,-5.5548344e-06,-3.81131e-06,-2.9026562e-06,2.423541e-05,4.3457518e-07,2.2509197e-05,2
-8.607471e-06,-2.1341189e-06,-3.1714677e-05,-4.7357344e-06,-5.848793e-06,-4.7845883e-06,-5.55431e-06,-8.510769e-06,1.2938109e-06,2.1549824e-05,-2.5866693e-06,2.2173996e-05,2
-7.265012e-06,-1.1272654e-06,-2.9700488e-05,-3.7286868e-06,-2.6971697e-06,-1.7633864e-06,-7.903676e-06,-2.0092046e-05,3.6439353e-06,1.550725e-05,-5.104365e-06,2.8888462e-05,2
-6.9296498e-06,-1.2953574e-06,-2.3657914e-05,-7.074459e-07,-7.782361e-07,2.5071924e-07,-9.413794e-06,-2.764494e-05,3.308473e-06,6.4433916e-06,-5.607871e-06,4.668098e-05,2
-5.0836443e-06,-4.56352e-07,-1.5265452e-05,1.3066993e-06,6.851392e-07,-7.5646136e-07,-9.245419e-06,-2.8148163e-05,7.9097015e-07,-2.7883164e-06,-3.5936362e-06,6.6823384e-05,2
-2.901941e-06,2.1480281e-07,-2.6767593e-06,6.35257e-07,2.5465301e-06,-7.565472e-07,-6.8950026e-06,-2.4958705e-05,-2.1588934e-07,-9.670135e-06,-6.875946e-08,7.3873554e-05,2
6.225566e-07,8.859601e-07,1.5450958e-05,-3.7188403e-07,4.0768537e-06,5.861598e-07,-3.201795e-06,-2.3279885e-05,-3.8350265e-07,-1.47056135e-05,1.1062274e-06,6.3635256e-05,2
4.8184497e-06,2.5642128e-06,2.9885992e-05,-2.0504208e-06,4.1752414e-06,1.9288675e-06,-5.1567906e-07,-1.891548e-05,-1.390363e-06,-1.6551954e-05,-5.7222275e-07,4.2654603e-05,2
7.1679997e-06,6.928052e-06,3.122879e-05,-3.057561e-06,2.9132334e-06,1.2573851e-06,8.2764427e-07,-1.3208278e-05,-2.0615244e-06,-1.3362818e-05,-2.9220678e-06,1.781342e-05,2
8.006907e-06,1.0284798e-05,2.166138e-05,-3.2254538e-06,2.2458973e-06,2.6000903e-06,1.3317191e-06,-1.1361608e-05,-3.8279572e-07,-8.998738e-06,-2.9220248e-06,-4.677875e-06,2
7.1673207e-06,7.5989715e-06,1.04154815e-05,-1.3791564e-06,9.446869e-07,4.2784964e-06,-8.497937e-07,-1.6228907e-05,2.1351784e-06,-7.6559445e-06,-1.2434897e-06,-1.7433911e-05,2
4.8170923e-06,-3.479317e-06,3.1979641e-06,1.3144339e-07,7.381164e-07,4.949807e-06,-5.045496e-06,-1.8578465e-05,3.3103584e-06,-1.0173682e-05,1.1064424e-06,-1.8944049e-05,2
3.4739564e-06,-1.3214812e-05,-4.947193e-07,9.706486e-07,9.3901565e-07,5.7889647e-06,-7.227006e-06,-7.332234e-06,2.3034986e-06,-1.13486285e-05,2.6171285e-06,-1.2900969e-05,2
5.152108e-06,-1.3382898e-05,-2.1732114e-06,1.9777012e-06,1.5869409e-06,5.28533e-06,-4.7087397e-06,1.4992047e-05,-3.818535e-07,-1.067723e-05,-5.719642e-07,-7.0257365e-06,2
1.0522942e-05,-7.172714e-06,-3.180307e-06,2.984754e-06,2.7316405e-06,3.9424485e-06,-2.3583186e-06,3.6141384e-05,-2.060111e-06,-8.159492e-06,-2.586111e-06,-7.1930763e-06,2
1.5558076e-05,-1.2328243e-07,-2.50891e-06,1.8097674e-06,4.50334e-06,3.1031154e-06,-3.1970374e-06,4.923396e-05,-8.8493056e-07,-6.31315e-06,-1.2432736e-06,-7.528264e-06,2
1.1529352e-05,3.5691644e-06,1.1837732e-06,1.306179e-06,7.458051e-06,3.2708763e-06,-5.0428466e-06,6.0312348e-05,2.975837e-06,-7.6559445e-06,7.7096075e-07,-7.024205e-06,2
-8.277203e-06,3.0653814e-06,4.03721e-06,2.481082e-06,8.567438e-06,3.2707878e-06,-6.888656e-06,6.6690955e-05,7.6758515e-06,-1.0005833e-05,9.388532e-07,-7.69509e-06,2
-3.5469122e-05,1.3866531e-06,3.1979641e-06,2.3131925e-06,8.556174e-06,2.0957532e-06,-7.2238226e-06,6.8537636e-05,8.179634e-06,-1.2691421e-05,1.1067457e-06,-8.365973e-06,2
-5.426858e-05,-4.599228e-07,1.6873208e-06,6.346601e-07,7.984883e-06,9.207192e-07,-3.3627607e-06,7.1559254e-05,4.319337e-06,-1.5041312e-05,9.969525e-08,-9.708252e-06,2
-5.561172e-05,1.3861837e-06,2.8622655e-06,-2.2188167e-06,6.681743e-06,1.927726e-06,4.694538e-06,7.441304e-05,2.6410798e-06,-1.77269e-05,-5.7166017e-07,-1.4911063e-05,2
-3.194532e-05,7.2606726e-06,4.3729087e-06,-4.400896e-06,4.35774e-06,1.9276367e-06,1.1409041e-05,6.602092e-05,2.305617e-06,-1.7055501e-05,-6.8067486e-08,-1.9442476e-05,2
1.0688036e-05,1.2295916e-05,3.5336625e-06,-4.7366334e-06,2.1491905e-06,5.847532e-07,1.1913121e-05,3.6479792e-05,-1.0511322e-06,-3.963261e-06,1.4426182e-06,-1.7427768e-05,2
5.483204e-05,9.610097e-06,2.1908686e-06,-2.0510852e-06,7.85264e-07,9.203614e-07,8.220972e-06,-8.67131e-06,-3.4007871e-06,1.3325211e-05,1.442662e-06,-1.507736e-05,2
8.454101e-05,-7.9678864e-07,3.3658134e-06,1.6415594e-06,3.1547247e-06,3.6058605e-06,6.207314e-06,-5.5165205e-05,-2.5613058e-06,1.5842948e-05,7.7130983e-07,-1.8265975e-05,2
7.7155295e-05,-8.853785e-06,5.547853e-06,2.4807673e-06,6.3817206e-06,5.452111e-06,5.2007535e-06,-0.00010669458,-2.0575228e-06,7.365176e-07,6.035047e-07,-2.4811576e-05,2
4.308155e-05,-7.343374e-06,6.2192503e-06,1.9771826e-06,8.847706e-06,5.284172e-06,2.1800013e-06,-0.00012885033,-3.0643826e-06,-1.8230447e-05,1.4427936e-06,-3.253212e-05,2
1.5553924e-05,-1.636731e-06,3.0301146e-06,9.700503e-07,6.974142e-06,4.9483833e-06,-7.554719e-06,-7.664887e-05,-1.7213546e-06,-2.8804949e-05,-6.780441e-08,-3.9245566e-05,2
5.818319e-06,-1.8048117e-06,-2.50891e-06,2.986154e-07,3.7124905e-06,3.7733473e-06,-1.527525e-05,1.3990069e-05,1.6358659e-06,-3.065129e-05,-2.9211974e-06,-4.428052e-05,2
4.475175e-06,-6.6726693e-06,-6.7051415e-06,-3.728182e-07,2.8353143e-06,3.2697092e-06,-1.3764068e-05,5.6624125e-05,2.4753472e-06,-2.393732e-05,-3.7603993e-06,-4.9315473e-05,2
5.4819193e-06,-1.20440745e-05,-8.551483e-06,-2.2191955e-06,2.0712512e-06,2.598219e-06,-7.72096e-06,2.087259e-05,2.935415e-07,-9.502286e-06,-3.256807e-06,-5.5693217e-05,2
6.8243626e-06,-1.4562043e-05,-8.887181e-06,-5.408367e-06,8.475412e-07,2.482394e-07,-4.5312877e-06,-4.760955e-05,-2.0561126e-06,5.771995e-06,-3.256763e-06,-6.3078056e-05,2
7.1597087e-06,-1.3219478e-05,-8.887181e-06,-6.751198e-06,3.0435097e-06,-1.2624963e-06,-7.552036e-06,-9.7963966e-05,4.6186133e-07,1.6514346e-05,-2.0817756e-06,-6.5930966e-05,2
5.4808643e-06,-9.191325e-06,-9.894276e-06,-5.408438e-06,5.079294e-06,-7.5903927e-07,-1.9636642e-05,-0.000112230795,5.497573e-06,3.4306362e-05,-9.067864e-07,-6.0391416e-05,2
3.1306222e-06,-4.8274733e-06,-1.1908468e-05,-2.0514876e-06,5.009429e-06,5.836616e-07,-3.356759e-05,-9.477412e-05,9.35834e-06,6.0994396e-05,-4.0319404e-07,-4.9816383e-05,2
1.2839279e-06,-3.484906e-06,-1.1069222e-05,6.3406605e-07,3.5785013e-06,5.835692e-07,-4.313446e-05,-7.228197e-05,1.2379862e-05,7.190459e-05,-1.7459427e-06,-4.0919844e-05,2
9.478749e-07,-3.6529834e-06,-9.390729e-06,1.8089761e-06,5.8518268e-08,4.156276e-07,-4.8505095e-05,-6.523194e-05,1.4394287e-05,5.6798162e-05,-2.249447e-06,-3.5380286e-05,2
2.4581634e-06,-2.813964e-06,-9.05503e-06,2.8160384e-06,-2.417444e-06,-8.8012214e-08,-4.4476175e-05,-6.288169e-05,1.37231245e-05,2.8095943e-05,-2.3521163e-07,-2.9505032e-05,2
3.4649036e-06,-7.999984e-07,-5.865895e-06,3.3195522e-06,-6.101147e-07,9.1898875e-07,-2.601222e-05,-5.0460494e-05,1.1877018e-05,1.4079145e-06,7.719289e-07,-2.279053e-05,2
2.121755e-06,3.9020737e-08,-8.304178e-07,2.6481223e-06,2.1082694e-06,4.1534852e-07,-6.037618e-06,-2.9646826e-05,8.520268e-06,-1.5377009e-05,-7.3867045e-07,-1.6076025e-05,2
4.4290584e-07,-1.4718477e-06,2.5265672e-06,1.3052968e-06,1.9169627e-06,-2.102483e-06,1.3482891e-06,-9.840255e-06,6.6741604e-06,-2.175528e-05,-3.5920618e-06,-1.3222053e-05,2
-6.0998794e-08,-3.9898105e-06,4.205059e-06,6.3386756e-07,1.719723e-06,-2.1025767e-06,4.0344153e-06,9.630619e-06,6.8422446e-06,-2.3433773e-05,-5.774058e-06,-1.3389366e-05,2
1.0649304e-07,-6.8434724e-06,4.205059e-06,6.338358e-07,2.6514417e-06,-1.5991235e-06,8.231191e-06,2.70873e-05,7.0103283e-06,-2.8972798e-05,-4.9347664e-06,-1.4228075e-05,2
-1.9080546e-06,-7.850792e-06,4.03721e-06,9.695034e-07,1.5769141e-06,-2.2706135e-06,8.063884e-06,3.833357e-05,3.4857287e-06,-3.4176122e-05,-4.599023e-06,-1.338829e-05,2
-3.586906e-06,-5.8368246e-06,7.729894e-06,1.6408683e-06,-2.011638e-06,-2.1028588e-06,5.210988e-06,4.320156e-05,-1.8852127e-06,-3.551892e-05,-5.9417725e-06,-1.1709259e-05,2
-4.2586607e-06,-9.694188e-07,1.5283109e-05,2.9836317e-06,-5.5481682e-06,-1.7672554e-06,3.5330365e-06,4.3201926e-05,-6.9204552e-06,-3.5854617e-05,-4.5989336e-06,-1.1540869e-05,2
-2.748377e-06,1.5480956e-06,2.1493532e-05,4.3263954e-06,-7.296417e-06,-1.5995012e-06,-4.9480127e-07,4.15238e-05,-9.7736565e-06,-3.467967e-05,-2.3480861e-07,-1.338667e-05,2
-1.2380948e-06,-1.3055636e-06,2.1997079e-05,3.3192694e-06,-6.5831646e-06,-7.6034917e-07,-4.942578e-07,4.2531265e-05,-1.1451915e-05,-3.6190315e-05,4.3663445e-07,-1.2546881e-05,2
-1.5741532e-06,-6.005563e-06,1.4611712e-05,6.3365275e-07,-4.374721e-06,-4.2474633e-07,6.891652e-06,4.6560017e-05,-1.14516815e-05,-4.3743534e-05,-1.5775115e-06,-8.685806e-06,2
-3.4208563e-06,-1.1880508e-05,4.540758e-06,-8.770195e-07,-2.3899597e-06,-1.4319377e-06,2.199863e-05,5.461715e-05,-1.547983e-05,-5.028965e-05,-2.5845623e-06,-4.321182e-06,2
-3.5890666e-06,-1.389492e-05,5.1237623e-07,-1.7162953e-06,-4.591359e-06,-4.4533203e-06,4.5833767e-05,6.183504e-05,-2.3368511e-05,-4.5422024e-05,-4.0951613e-06,-2.6421446e-06,2
-1.4073886e-06,-2.4813917e-06,-2.8446086e-06,-3.730515e-06,-7.759256e-06,-6.803304e-06,7.4200834e-05,7.056357e-05,-2.6725262e-05,-2.2426677e-05,-3.759416e-06,-2.6415987e-06,2
9.4213885e-07,2.3031473e-05,-1.02299755e-05,-5.409035e-06,-8.395944e-06,-7.978344e-06,9.467898e-05,8.281694e-05,-2.1857397e-05,1.0807472e-05,-3.9272218e-06,-2.8089007e-06,2
2.7881167e-06,4.384456e-05,-1.61047e-05,-6.5840068e-06,-8.279093e-06,-7.474893e-06,9.9379315e-05,8.58386e-05,-1.4975344e-05,3.8670445e-05,-3.9271763e-06,-1.2977098e-06,2
1.7806582e-06,4.0151655e-05,-1.795104e-05,-6.751885e-06,-9.1430775e-06,-5.62865e-06,8.763041e-05,7.711082e-05,-1.2793071e-05,4.807e-05,-2.5843358e-06,3.8133106e-07,2
-5.695949e-07,1.7659642e-05,-1.4929754e-05,-6.751912e-06,-9.386046e-06,-4.6216505e-06,6.0942926e-05,6.603315e-05,-1.0107249e-05,4.135603e-05,-2.9199882e-06,3.818809e-07,2
-2.0806026e-06,-4.832377e-06,-1.00621255e-05,-6.2483887e-06,-7.242312e-06,-5.6288436e-06,2.435234e-05,5.713751e-05,-6.7500305e-06,3.564916e-05,-3.4234897e-06,-1.6317592e-06,2
-3.4237628e-06,-1.456785e-05,-6.7051415e-06,-5.241321e-06,-4.9825026e-06,-6.1324877e-06,-1.1399002e-05,4.3206404e-05,-7.5890416e-06,4.0013238e-05,-1.7449522e-06,-2.8061515e-06,2
-7.6203582e-06,-1.1882479e-05,-4.523101e-06,-3.5628548e-06,-4.3614e-06,-6.4682827e-06,-3.7750782e-05,1.567951e-05,-9.770848e-06,4.706291e-05,-1.9127556e-06,4.783828e-08,2
-2.1552214e-05,-7.3507663e-06,-4.947193e-07,-3.5628802e-06,-3.84502e-06,-8.818271e-06,-5.0842475e-05,-2.594672e-05,-9.602765e-06,5.0419894e-05,-3.7590519e-06,2.73398e-06,2
-4.4044376e-05,-6.343887e-06,1.6873208e-06,-7.0877395e-06,-3.150102e-06,-1.1336105e-05,-6.158428e-05,-6.6062305e-05,-8.259738e-06,4.7734306e-05,-4.9339515e-06,1.3917397e-06,2
-6.250816e-05,-8.693992e-06,-9.982668e-07,-1.0780447e-05,-4.7310414e-06,-1.1504052e-05,-6.561211e-05,-8.469319e-05,-8.427354e-06,4.2698826e-05,-3.9268116e-06,-2.8619567e-07,2
-7.9797e-05,-1.3897534e-05,-8.215784e-06,-1.2123266e-05,-7.50583e-06,-1.1000603e-05,-4.9498038e-05,-7.814669e-05,-9.434215e-06,3.6656256e-05,-3.2553667e-06,7.771124e-06,2
-0.00010799604,-1.9604622e-05,-1.5265452e-05,-1.0109098e-05,-7.835868e-06,-9.154362e-06,-2.43201e-05,-5.4647404e-05,-7.41979e-06,3.0613683e-05,-3.7588688e-06,1.7506938e-05,2
-0.00010363233,-1.6919248e-05,-1.3083412e-05,-5.5771925e-06,-4.4369235e-06,-6.301022e-06,-8.038174e-06,-1.8223733e-05,-1.3769844e-06,2.7256698e-05,-3.5909738e-06,1.3143416e-05,2
-1.2490561e-05,-1.3453909e-07,-1.8375132e-06,-3.7388975e-07,2.2377312e-06,-2.104889e-06,-1.8272007e-06,1.2325216e-05,7.519259e-06,2.7928094e-05,-1.2410388e-06,-2.8396352e-07,2
0.00011725653,1.7657268e-05,7.2263456e-06,1.4724293e-06,7.977155e-06,1.755544e-06,3.8802223e-06,2.0382367e-05,1.4401311e-05,2.65853e-05,-5.6959686e-07,-2.297595e-06,2
0.00016677169,2.0174792e-05,7.897743e-06,1.9759548e-06,6.2752324e-06,3.7696357e-06,5.5592677e-06,1.2493842e-05,1.6080037e-05,1.9199933e-05,-9.052488e-07,7.773921e-06,2
0.00011389881,8.928681e-06,6.2192503e-06,2.3116306e-06,3.225399e-06,4.1255134e-07,1.8671362e-06,9.126361e-07,1.1044793e-05,8.457582e-06,-5.6950466e-07,1.6166947e-05,2
3.954122e-05,-1.1424848e-06,4.540758e-06,2.4794576e-06,3.8206713e-06,-1.2660413e-06,-2.8320887e-06,-7.4794343e-06,5.3381523e-06,-4.13111e-06,-5.6945845e-07,1.6671058e-05,2
4.460357e-06,-5.0032295e-06,4.540758e-06,3.486531e-06,5.5987516e-06,2.2586928e-06,-3.8386343e-06,-9.157534e-06,4.163441e-06,-1.5544858e-05,-2.3371324e-07,1.51609775e-05,2
2.6136424e-06,-4.3320424e-06,7.0584965e-06,5.165003e-06,6.0404186e-06,5.951276e-06,-2.4952856e-06,-7.814347e-06,7.0171113e-06,-2.0244637e-05,1.4448251e-06,1.4154446e-05,2
8.152295e-06,-1.9823651e-06,1.02476315e-05,7.85057e-06,5.6925614e-06,5.9511754e-06,-1.8233363e-06,-4.456967e-06,7.353043e-06,-1.8230447e-05,3.7947623e-06,1.2140823e-05,2
8.151921e-06,-4.7193117e-07,1.0919029e-05,1.1039686e-05,4.9494192e-06,5.447528e-06,-1.1513868e-06,-5.9603934e-07,4.7145764e-07,-1.302712e-05,3.2912608e-06,1.0462897e-05,2
5.8016576e-06,1.9925517e-07,9.240536e-06,1.3389555e-05,3.14715e-06,5.1117295e-06,-1.4373785e-07,1.5863976e-06,-6.410129e-06,-7.4880945e-06,1.7806642e-06,9.792069e-06,2
6.136981e-06,3.220333e-06,7.2263456e-06,1.238244e-05,6.5629064e-07,4.2723814e-06,6.9606546e-07,3.4331374e-06,-3.3886092e-06,-4.2989595e-06,1.4450106e-06,1.1303281e-05,2
4.625964e-06,4.2272204e-06,6.890647e-06,8.857587e-06,1.2040759e-07,4.2722804e-06,6.9662013e-07,2.59429e-06,3.9969905e-06,-6.062764e-07,1.4450573e-06,1.365374e-05,2
1.4364522e-06,3.555614e-06,6.722798e-06,4.9970354e-06,1.9491983e-06,5.614973e-06,1.9362416e-07,-2.5874755e-07,7.186359e-06,2.0793116e-06,3.2914468e-06,1.4157858e-05,2
-2.4241695e-07,8.6981925e-07,5.380004e-06,1.9757308e-06,4.4898034e-06,7.2933644e-06,-4.772164e-07,-2.4403873e-06,5.5080995e-06,3.0864069e-06,4.4664375e-06,1.1137145e-05,2
-7.494465e-08,-1.4802781e-06,4.7086073e-06,-2.0632835e-07,3.5142575e-06,7.79681e-06,-8.123586e-07,-3.4470809e-06,3.6619904e-06,1.072216e-06,4.634333e-06,7.4450345e-06,2
-9.1456684e-07,-2.991128e-06,3.7015118e-06,-7.0989313e-07,6.106249e-07,7.964557e-06,-8.1180247e-07,-3.278829e-06,2.3194298e-06,-2.7883164e-06,3.459436e-06,6.6063612e-06,2
-5.2790256e-06,-2.8234854e-06,-8.304178e-07,-1.5491576e-06,-7.544477e-07,8.635852e-06,-4.7554798e-07,-2.607028e-06,3.326758e-06,-7.6559445e-06,2.9559337e-06,4.9284426e-06,2
-8.300691e-06,-1.8165962e-06,-6.0337443e-06,-2.0527216e-06,-8.3219567e-07,8.467901e-06,-3.0714207e-07,1.925306e-06,5.3411813e-06,-1.3362818e-05,4.6344735e-06,-2.743065e-07,2
-7.965369e-06,1.9738941e-07,-7.3765377e-06,-2.8919842e-06,-5.351386e-07,7.4607024e-06,-3.065848e-07,1.0318174e-05,7.355605e-06,-1.5712707e-05,6.1451633e-06,-3.966414e-06,2
-6.958655e-06,2.2113766e-06,-5.865895e-06,-2.7241506e-06,4.8758366e-08,5.9499557e-06,-4.7387618e-07,1.5186209e-05,8.027235e-06,-1.47056135e-05,4.634567e-06,-2.6230423e-06,2
-4.2734455e-06,3.553965e-06,-3.5160053e-06,-2.7241665e-06,1.6753934e-06,3.935663e-06,-2.8232053e-06,1.3675974e-05,7.691769e-06,-1.47056135e-05,2.1168762e-06,-1.783218e-06,2
-1.923937e-06,3.218063e-06,-1.8375132e-06,-1.717088e-06,1.6871576e-06,3.2641635e-06,-8.193825e-06,1.3340685e-05,5.3421113e-06,-1.73912e-05,7.741293e-07,-3.6289798e-06,2
2.577212e-07,3.3857084e-06,-1.5018146e-06,-7.1000716e-07,1.8804639e-06,5.110401e-06,-1.8264222e-05,1.434819e-05,1.8175098e-06,-2.0412486e-05,1.6134234e-06,-5.6425906e-06,2
-9.1760313e-07,6.7424903e-06,-2.8446086e-06,-8.77871e-07,2.9846572e-06,5.6138447e-06,-3.4377186e-05,3.6062497e-06,8.106468e-07,-2.0076788e-05,2.6205646e-06,-7.3205015e-06,2
-7.296257e-06,8.756478e-06,-4.1874027e-06,-2.2206793e-06,4.405039e-06,2.9281537e-06,-4.981876e-05,-1.4521056e-05,2.6572206e-06,-1.73912e-05,1.2778177e-06,-8.830562e-06,2
-1.4346308e-05,6.7420856e-06,-3.851704e-06,-2.2206934e-06,3.236579e-06,1.0817087e-06,-5.1496692e-05,-2.3584502e-05,5.846588e-06,-1.4537764e-05,1.1100159e-06,-1.1347718e-05,2
-1.636088e-05,3.049201e-06,-1.6696639e-06,-7.1006417e-07,2.943015e-06,3.2636444e-06,-3.6557547e-05,-2.3248389e-05,5.5111223e-06,-1.2691421e-05,1.4457612e-06,-1.3361325e-05,2
-1.2165034e-05,1.3705069e-06,6.8022547e-07,8.005655e-07,6.2603744e-06,4.270634e-06,-1.7925722e-05,-2.3415823e-05,8.115756e-07,-1.2355723e-05,1.4458085e-06,-1.6214177e-05,2
-6.7942424e-06,1.3703062e-06,2.0230193e-06,6.327035e-07,8.306878e-06,2.4241872e-06,-3.8258263e-06,-3.164002e-05,-7.748503e-06,-1.302712e-05,2.1172539e-06,-2.2088314e-05,2
-4.4447356e-06,2.209353e-06,3.5336625e-06,9.683899e-07,7.2763883e-06,2.420434e-07,4.567199e-06,-4.372475e-05,-1.1105256e-05,-1.2020025e-05,2.6208484e-06,-2.77946e-05,2
-2.5987788e-06,3.2162482e-06,5.8835517e-06,9.683777e-07,6.073728e-06,5.7763634e-07,9.267537e-06,-5.3627435e-05,-5.7338484e-06,-1.2020025e-05,1.1102528e-06,-3.0143903e-05,2
2.436312e-06,3.887445e-06,5.547853e-06,2.814707e-06,6.164696e-06,1.416778e-06,1.598207e-05,-5.6144756e-05,9.803525e-07,-1.2859271e-05,-2.3249365e-07,-1.9233114e-05,2
7.807102e-06,5.7335883e-06,5.8835517e-06,5.8359815e-06,4.4171356e-06,1.4166725e-06,2.739638e-05,-4.808757e-05,4.673268e-06,-1.2691421e-05,4.3895193e-07,1.5512267e-05,2
9.653057e-06,7.411882e-06,7.562044e-06,6.3395187e-06,2.5107474e-06,2.2558118e-06,3.411091e-05,-3.2309323e-05,3.666404e-06,-7.4880945e-06,4.3899956e-07,5.9825055e-05,2
8.813424e-06,8.922328e-06,8.56914e-06,4.8288643e-06,3.8408907e-06,4.102048e-06,3.310438e-05,-1.1495594e-05,2.3238422e-06,1.131102e-05,7.747452e-07,9.003852e-05,2
9.484434e-06,8.250734e-06,8.233441e-06,3.1503612e-06,8.970513e-06,5.444736e-06,2.890871e-05,1.1332327e-05,1.6526767e-06,3.0613683e-05,1.949738e-06,9.154975e-05,2
1.1833935e-05,6.404196e-06,8.401291e-06,8.0046215e-07,1.1534556e-05,5.2767805e-06,2.4377345e-05,3.4328095e-05,3.6670988e-06,3.1788626e-05,3.9639767e-06,6.7547895e-05,2
1.0155054e-05,4.0541104e-06,6.890647e-06,-3.8794486e-08,9.379827e-06,3.262484e-06,1.7663939e-05,5.5141827e-05,3.83518e-06,1.4835854e-05,2.1176825e-06,3.716778e-05,2
2.4336e-06,8.647785e-07,2.6944163e-06,-7.1019974e-07,4.6448235e-06,-1.4374027e-06,8.0971e-06,6.789879e-05,2.3247685e-06,-3.6275624e-06,-2.321596e-07,1.9879904e-05,2
-8.980537e-06,-3.163799e-06,-1.3339654e-06,-1.3816067e-06,4.3288438e-07,-7.312233e-06,1.2158457e-06,7.2095456e-05,1.3179045e-06,-1.47056135e-05,7.749843e-07,1.618782e-05,2
-1.6366293e-05,-5.513884e-06,-3.5160053e-06,-3.7315042e-06,-2.3960993e-06,-1.134072e-05,1.5521088e-06,6.7396104e-05,6.467387e-07,-2.0412486e-05,1.2785792e-06,1.6524116e-05,2
-1.6030986e-05,-6.6890225e-06,-4.8587995e-06,-5.0743065e-06,-3.20696e-06,-1.0333733e-05,6.2524523e-06,5.3129348e-05,-3.6012509e-07,-2.0748184e-05,-2.3201572e-07,1.4342673e-05,2
-1.301009e-05,-8.703407e-06,-6.2015934e-06,-3.0601232e-06,-2.0813652e-06,-7.144705e-06,8.938606e-06,3.248432e-05,-1.7026889e-06,-1.4369914e-05,-1.2390626e-06,1.0482739e-05,2
-1.2003387e-05,-9.207149e-06,-5.5301966e-06,-3.745425e-07,-7.584164e-07,-5.8020205e-06,5.917885e-06,6.9716675e-06,-1.3667587e-06,-4.9703563e-06,-2.3191956e-07,8.133449e-06,2
-1.2003779e-05,-5.850357e-06,-3.0124577e-06,9.682454e-07,3.3612645e-07,-5.4664283e-06,4.072109e-06,-1.6526794e-05,1.990457e-06,1.4079145e-06,9.430736e-07,3.6021202e-06,2
-9.98998e-06,-3.1649615e-06,-2.50891e-06,1.3039368e-06,2.971948e-07,-4.1237427e-06,5.2476225e-06,-2.1561837e-05,5.179824e-06,1.5757638e-06,1.2788198e-06,-1.4327543e-06,2
-8.983277e-06,-2.8294558e-06,-3.851704e-06,1.4717795e-06,2.1226859e-07,-2.10966e-06,3.9053934e-06,-1.38403375e-05,6.019301e-06,1.072216e-06,-5.6747393e-07,-3.2784938e-06,2
-7.640877e-06,-2.8296472e-06,-4.6909504e-06,2.9682857e-07,6.623664e-07,-1.1026746e-06,2.5631682e-06,-9.3079725e-06,4.5088887e-06,3.4221052e-06,-1.4066707e-06,-2.2707952e-06,2
-4.7878348e-06,-3.1655363e-06,-4.6909504e-06,-1.213819e-06,2.0158814e-06,5.757097e-07,3.067284e-06,-5.1113057e-06,2.662778e-06,5.939844e-06,-6.382831e-08,-3.1094366e-06,2
-3.2775863e-06,-3.669275e-06,-5.026649e-06,-3.8881176e-08,2.5468332e-06,1.5826967e-06,5.249893e-06,-7.4607574e-06,2.1594615e-06,5.771995e-06,1.1111641e-06,-5.2908713e-06,2
-3.949377e-06,-3.1659172e-06,-4.019553e-06,2.6467021e-06,3.1469951e-06,1.2468895e-06,5.5861597e-06,-1.7866972e-05,2.159692e-06,-1.9490703e-06,2.719675e-07,-7.975853e-06,2
-4.6211685e-06,-3.1661068e-06,-2.1732114e-06,1.9753015e-06,2.2164331e-06,-9.601387e-08,3.7403856e-06,-2.8105336e-05,2.3277719e-06,-1.7055501e-05,-2.581422e-06,-1.0325135e-05,2
-3.2787725e-06,-2.662748e-06,-3.2686998e-07,4.6465448e-07,8.80966e-07,-2.4460126e-06,3.5731057e-06,-2.9783387e-05,2.9993992e-06,-2.7294305e-05,-4.5955644e-06,-1.1331622e-05,2
-1.936374e-06,-2.6629368e-06,2.0230193e-06,-3.7459623e-07,-8.383064e-08,-5.131711e-06,5.5878672e-06,-2.1894033e-05,2.328233e-06,-2.6455058e-05,-3.252721e-06,-4.6170435e-06,2
-1.7689218e-06,-3.670221e-06,3.1979641e-06,-7.1029757e-07,-1.1308715e-06,-4.7961234e-06,7.434777e-06,-7.962103e-06,9.85669e-07,-2.1419582e-05,-9.027842e-07,8.811505e-06,2
-1.2657723e-06,-3.5025587e-06,3.5336625e-06,-1.5495475e-06,-1.7701858e-06,-2.9498915e-06,6.0925554e-06,2.6295234e-07,3.1450213e-07,-1.6719803e-05,-9.0273556e-07,1.8547371e-05,2
1.0837208e-06,-8.17158e-07,2.1908686e-06,-3.899439e-06,-1.2899833e-06,-2.278604e-06,8.898009e-07,-3.4292864e-06,3.1473243e-07,-1.5712707e-05,-1.7419319e-06,1.8212286e-05,2
3.7689094e-06,3.211036e-06,-4.947193e-07,-5.7457823e-06,-3.097877e-07,-1.1037714e-06,-1.1238212e-06,-5.9465797e-06,4.8281265e-07,-1.13486285e-05,-1.9097322e-06,7.974094e-06,2
4.4399076e-06,4.217946e-06,-1.1661161e-06,-5.0743884e-06,1.7946046e-06,1.9174047e-06,8.947705e-06,2.6428836e-07,1.1544391e-06,1.072216e-06,-1.7418342e-06,-2.2640963e-06,2
2.7610154e-06,2.035719e-06,1.5194717e-06,-2.0531027e-06,4.242496e-06,5.274279e-06,2.5061805e-05,2.3763629e-05,9.868202e-07,1.5171552e-05,-2.4131834e-06,-4.2776724e-06,2
3.0963145e-06,-4.8220426e-07,4.8764564e-06,4.646352e-07,5.359224e-06,8.463304e-06,3.0769246e-05,5.9683814e-05,1.4780396e-07,2.65853e-05,-2.5809834e-06,-4.612755e-06,2
4.606558e-06,8.604049e-07,5.547853e-06,6.324835e-07,3.8354106e-06,8.631041e-06,2.3552304e-05,8.284746e-05,8.1943114e-07,3.111723e-05,-5.667445e-07,-8.80837e-06,2
6.1167993e-06,4.2172055e-06,3.5336625e-06,-3.8914905e-08,9.0633426e-07,6.6167395e-06,1.0964182e-05,8.133727e-05,4.0087966e-06,3.162078e-05,9.4394846e-07,-1.3843231e-05,2
7.794891e-06,5.559815e-06,2.0230193e-06,9.681821e-07,-1.3950013e-06,4.7702856e-06,-4.477374e-06,6.0020866e-05,7.0303126e-06,4.2866675e-05,1.1118465e-06,-1.5353255e-05,2
9.64083e-06,5.223932e-06,1.0159239e-06,1.8074275e-06,1.43345e-07,3.9309266e-06,-2.3779463e-05,2.645147e-05,5.35205e-06,5.6462464e-05,-5.665974e-07,-1.2163501e-05,2
1.04796745e-05,4.3845043e-06,1.8551701e-06,2.4788253e-06,1.9515849e-06,3.2594185e-06,-3.8717473e-05,-4.432338e-06,-2.5366348e-06,5.0419894e-05,-2.4128892e-06,-8.1345e-06,2
9.9757235e-06,3.5450748e-06,3.7015118e-06,1.9752792e-06,4.271119e-07,9.09415e-07,-4.96271e-05,-2.2559601e-05,-1.04253195e-05,2.5578205e-05,-2.5806892e-06,-4.6090445e-06,2
5.2755418e-06,1.8790799e-07,4.7086073e-06,-8.781562e-07,-3.57527e-06,-2.2798315e-06,-6.187952e-05,-2.6755377e-05,-1.1767885e-05,-5.473904e-06,-1.4056948e-06,-2.5942322e-06,2
-1.7745298e-06,-3.1692575e-06,4.7086073e-06,-4.0672903e-06,-5.8999417e-06,-4.6298355e-06,-5.818626e-05,-1.4501927e-05,-8.4106705e-06,-3.551892e-05,-3.9855055e-07,-4.272102e-06,2
-6.978261e-06,-5.6871772e-06,2.6944163e-06,-5.410082e-06,-4.605605e-06,-3.4550023e-06,-2.9987013e-05,-1.0137389e-05,-3.374963e-06,-5.297524e-05,-5.663512e-07,-9.306956e-06,2
-8.992855e-06,-7.869397e-06,1.7667774e-07,-5.2422306e-06,-3.280254e-06,-1.7766237e-06,-1.955615e-06,-4.538527e-05,1.6607438e-06,-5.2135994e-05,-1.2376978e-06,-1.2663316e-05,2
-1.1678848e-05,-1.0890864e-05,-1.1661161e-06,-5.5779255e-06,-4.202575e-06,-3.2873802e-06,6.9409684e-06,-0.00010648194,2.8359175e-06,-4.793976e-05,-9.0195044e-07,-1.2159143e-05,2
-1.6379032e-05,-1.3240933e-05,-1.5018146e-06,-7.4242644e-06,-6.5916483e-06,-5.8052337e-06,8.116491e-06,-0.00016287882,1.4933531e-06,-4.2904285e-05,-1.405448e-06,-1.0647874e-05,2
-1.7050836e-05,-1.2401866e-05,-1.1661161e-06,-6.5850136e-06,-6.8418553e-06,-7.1481395e-06,1.2145448e-05,-0.00018067038,1.9971294e-06,-2.846925e-05,-2.2446454e-06,-1.0311549e-05,2
-1.2183616e-05,-1.1227099e-05,-2.3410607e-06,-4.2351203e-06,-4.3791924e-06,-6.1411597e-06,1.4999462e-05,-0.00012527966,3.5080018e-06,-8.327341e-06,-6.25549e-08,-8.128881e-06,2
-8.827037e-06,-1.18986745e-05,-3.5160053e-06,-2.053076e-06,-2.355298e-06,-4.127082e-06,1.2146601e-05,-2.5241057e-05,3.6760798e-06,4.7648996e-06,-2.3035531e-07,-7.121156e-06,2
-8.6595965e-06,-1.2570249e-05,-4.523101e-06,-1.5495242e-06,-2.4937851e-06,-3.4557993e-06,5.09751e-06,3.9549213e-05,2.3335153e-06,7.114789e-06,-1.4052497e-06,-8.46332e-06,2
-8.660004e-06,-9.54914e-06,-3.3481563e-06,-3.8876042e-08,-3.7404732e-06,-3.7916118e-06,-7.7663657e-07,3.7703336e-05,8.231007e-07,5.2684472e-06,2.7329304e-07,-1.06447305e-05,2
-4.9677296e-06,-4.010291e-06,-3.180307e-06,2.3110194e-06,-5.1756324e-06,-3.4560287e-06,-1.279607e-06,1.403706e-05,-1.6944098e-06,4.0935024e-06,1.9518347e-06,-9.301305e-06,2
-6.040576e-07,-4.856331e-07,-2.8446086e-06,2.6467235e-06,-6.34239e-06,-1.4419536e-06,7.35164e-07,7.827107e-06,-3.2048242e-06,2.0793116e-06,1.4483355e-06,-6.279386e-06,2
-6.044671e-07,2.1997794e-06,-1.3339654e-06,1.8074837e-06,-7.139182e-06,-9.3852185e-07,3.5891762e-06,1.806638e-05,-5.5544847e-06,2.2471606e-06,-5.6580564e-07,-4.0967134e-06,2
