emg1,emg2,emg3,emg4,emg5,emg6,emg7,emg8,emg9,emg10,emg11,emg12,label
2.2701042e-05,-1.6426986e-05,-4.6662088e-05,1.907592e-05,7.022223e-06,-1.904212e-06,7.263032e-05,1.6554543e-06,1.1416288e-06,-3.692683e-05,-4.630769e-07,-3.3776166e-06,6
2.924018e-05,1.3457172e-05,-2.2995346e-05,2.0083447e-05,8.164822e-06,-2.2402264e-06,8.874345e-05,-3.4428118e-05,-1.5444697e-06,-3.105211e-05,-7.9877077e-07,-2.1970375e-06,6
3.426867e-05,5.341229e-05,-2.853437e-06,2.3776563e-05,6.989982e-06,-3.5833373e-06,8.874305e-05,-5.62445e-05,-3.3913218e-06,-1.7959868e-05,-1.8058591e-06,1.1655864e-06,6
4.0807798e-05,7.255411e-05,9.231708e-06,3.5190744e-05,7.859024e-06,-2.5765587e-06,8.471427e-05,-5.6576177e-05,-3.8953785e-06,2.3498894e-06,-2.4772478e-06,1.6747773e-06,6
4.8857568e-05,6.316156e-05,1.6449225e-05,4.744417e-05,1.1340444e-05,1.4515043e-06,8.320323e-05,-3.2234006e-05,-3.2244916e-06,3.0716412e-05,-2.81294e-06,-8.373118e-07,6
5.2543248e-05,4.4033764e-05,2.0477608e-05,5.0298037e-05,1.2374932e-05,6.150964e-06,7.66567e-05,2.3469681e-06,-3.8963985e-06,5.5893797e-05,-6.3089067e-07,-2.845849e-06,6
4.884356e-05,3.212349e-05,2.2827497e-05,4.3416647e-05,9.021351e-06,4.8078523e-06,6.104631e-05,3.424236e-05,-8.0931395e-06,7.083238e-05,8.7976025e-07,-4.518682e-06,6
3.8597747e-05,2.659149e-05,2.7023727e-05,3.3178276e-05,3.7835537e-06,-8.993413e-07,3.9729046e-05,6.110228e-05,-1.2961277e-05,8.039978e-05,3.7622277e-07,-5.8558126e-06,6
2.7009139e-05,2.1730895e-05,3.0380712e-05,2.3443446e-05,-1.2104118e-06,-5.59944e-06,1.2369213e-05,7.923404e-05,-1.27939375e-05,8.912795e-05,-2.141505e-06,-4.171651e-06,6
1.5252674e-05,1.8548795e-05,3.0212863e-05,1.2533675e-05,-3.9209203e-06,-9.1245965e-06,-1.8347608e-05,6.0271126e-05,-9.605311e-06,9.248493e-05,-4.4913854e-06,1.0373494e-06,6
-1.12745265e-05,1.6541644e-05,2.7695125e-05,1.4560524e-06,-4.6020245e-06,-1.1978352e-05,-4.4868204e-05,-8.2073075e-06,-8.598726e-06,8.6778055e-05,-4.323523e-06,2.553671e-06,6
-4.6026347e-05,1.25203105e-05,2.6016633e-05,-5.08964e-06,-3.55909e-06,-1.3321469e-05,-6.601762e-05,-6.7286186e-05,-9.774179e-06,7.486076e-05,-2.4771696e-06,7.1301366e-07,6
-5.409014e-05,7.4918844e-06,2.7695125e-05,-7.4391023e-06,-1.0832478e-06,-1.4328884e-05,-8.129232e-05,-6.9632006e-05,-1.0446085e-05,6.210422e-05,-1.6379123e-06,-4.5624384e-07,6
-3.043043e-05,1.1206716e-06,3.2394903e-05,-7.774376e-06,6.1451357e-07,-1.5168453e-05,-8.532112e-05,-3.6897338e-05,-1.0110896e-05,5.6733043e-05,-1.6378995e-06,5.299758e-08,6
-2.5744973e-06,-4.2434413e-06,3.944457e-05,-6.095458e-06,7.954029e-07,-1.3993832e-05,-7.139005e-05,-1.8765551e-05,-9.272158e-06,7.016098e-05,-1.134339e-06,1.2336409e-06,6
-1.9101444e-06,-2.5578815e-06,4.0451665e-05,-3.073746e-06,1.0915252e-06,-1.1979963e-05,-4.9570077e-05,-2.8832432e-05,-8.6012715e-06,8.9799345e-05,2.0847004e-07,4.092781e-06,6
-2.2730495e-05,1.0037884e-05,2.853437e-05,-2.7376232e-06,1.4661056e-06,-9.462551e-06,-2.9596444e-05,-4.863456e-05,-9.273176e-06,9.114214e-05,2.8940726e-06,5.609131e-06,6
-4.1033112e-05,2.2801503e-05,9.735256e-06,-4.415691e-06,1.9534496e-06,-6.609437e-06,-1.633678e-05,-5.433735e-05,-7.091645e-06,7.8385594e-05,4.0690315e-06,5.446995e-06,6
-5.1950374e-05,2.1465794e-05,-2.5177385e-06,-3.7438692e-06,-9.19029e-07,-4.5955717e-06,-1.3315922e-05,-3.4191355e-05,-1.3852792e-06,7.603571e-05,2.3905545e-06,4.613468e-06,6
-5.095034e-05,1.08983795e-05,-4.0283817e-06,-5.0763155e-08,-2.3897333e-06,-3.0852532e-06,-1.7680431e-05,-9.5311276e-07,-2.108426e-07,8.3085375e-05,1.8870237e-06,3.2763958e-06,6
-3.4676028e-05,-3.5295632e-06,-2.853437e-06,4.1458893e-06,7.612125e-07,-2.2463319e-06,-2.3555589e-05,3.094234e-05,-1.3862959e-06,8.039978e-05,2.5584375e-06,2.2750291e-06,6
-1.6555377e-05,-2.7021359e-05,-2.3498894e-06,6.1605037e-06,3.4568825e-06,-9.038641e-07,-2.5738062e-05,4.4038683e-05,1.8023313e-06,5.992218e-05,4.740495e-06,1.4415147e-06,6
-5.3165504e-06,-4.4302727e-05,2.1820401e-06,1.6289962e-06,2.8074319e-06,1.1100002e-06,-2.070302e-05,2.4236577e-05,3.9838637e-06,4.2801556e-05,5.9154577e-06,1.9507988e-06,6
-1.6309443e-06,-3.8253045e-05,1.2252995e-05,-6.763046e-06,7.506282e-07,2.788165e-06,-1.2478845e-05,-1.402894e-05,-2.8984632e-06,4.229801e-05,4.9083806e-06,1.1172958e-06,6
-3.6522154e-06,-2.0453912e-05,2.7023727e-05,-8.1054195e-06,-5.58019e-07,4.1306303e-06,-4.9260675e-06,-5.1287356e-05,-1.3977021e-05,3.2059204e-05,3.0620583e-06,1.2908916e-06,6
-6.177039e-06,-7.1867044e-06,4.3305103e-05,-1.8945763e-06,-5.6468485e-07,6.144493e-06,-5.624274e-07,-8.6195876e-05,-2.236999e-05,-1.5106432e-06,2.894229e-06,2.3037394e-06,6
-5.177034e-06,-2.8155e-06,5.958648e-05,1.0023138e-05,2.9327498e-06,6.1441647e-06,1.7870169e-06,-0.00012748266,-2.606318e-05,-4.2633706e-05,3.0620984e-06,9.667017e-07,6
1.9199632e-08,-4.5848245e-07,6.4621956e-05,2.680848e-05,6.8351574e-06,6.1438354e-06,3.9686133e-06,-0.0001838759,-3.5295398e-05,-7.049668e-05,1.5514761e-06,-2.5523711e-06,6
6.390374e-06,6.934017e-06,4.2801556e-05,4.392952e-05,8.313313e-06,7.3184506e-06,3.46462e-06,-0.00021777731,-6.584447e-05,-7.872129e-05,8.800994e-07,-4.392947e-06,6
8.901011e-06,1.2312331e-05,6.5461204e-06,5.26581e-05,7.810086e-06,4.1289845e-06,-3.4176471e-06,-0.00016305431,-0.00010495385,-7.855344e-05,8.8012126e-07,-4.0514783e-06,6
1.3406886e-06,6.276903e-06,-1.7120623e-05,5.0812178e-05,5.825541e-06,4.3597106e-07,-7.950027e-06,-4.4716464e-05,-0.00011636809,-7.536431e-05,1.5515417e-06,-3.7100049e-06,6
-2.115822e-05,-2.6119585e-06,-2.1316853e-05,4.191658e-05,4.4393273e-06,4.3564e-07,-3.922096e-06,4.340853e-05,-8.347016e-05,-4.5822842e-05,7.123177e-07,-2.8649777e-06,6
-5.03711e-05,9.20029e-07,-1.5945678e-05,3.654582e-05,5.3061294e-06,2.4494984e-06,2.4557187e-06,6.707942e-05,-2.3380639e-05,1.3427939e-06,-1.6375477e-06,-1.5163987e-06,6
-7.085582e-05,6.9697594e-06,-8.5603115e-06,4.59458e-05,4.4700737e-06,3.1205655e-06,3.7980594e-06,3.670286e-05,3.217695e-05,1.7120623e-05,-2.8124684e-06,-2.014157e-06,6
-8.4962274e-05,5.6341287e-06,-6.378271e-06,6.239544e-05,7.1656046e-08,5.302272e-06,-1.5735748e-06,-1.9354633e-05,5.9535872e-05,-1.5777829e-05,-1.8053479e-06,-3.5190064e-06,6
-0.00010041154,4.298504e-06,-4.3640803e-06,5.618543e-05,-1.9009905e-06,6.1411847e-06,-1.4666273e-05,-4.1003022e-05,6.2388805e-05,-7.301442e-05,-4.6252757e-07,-2.8418094e-06,6
-9.706168e-05,1.0012551e-05,3.8605326e-06,1.27128915e-05,-7.51139e-07,5.4694547e-06,-2.876607e-05,-7.429012e-06,6.4234635e-05,-0.00012018006,-6.3035174e-07,-1.8289105e-06,6
-3.5971698e-05,2.4454761e-05,1.779202e-05,-3.3613083e-05,3.4355955e-06,7.1476134e-06,-2.4402452e-05,4.2426378e-05,7.866917e-05,-0.00014166476,-6.3032536e-07,-2.6623482e-06,6
8.2690574e-05,4.2589665e-05,2.635233e-05,-4.586567e-05,8.506802e-06,9.665018e-06,-1.911119e-06,7.2643415e-05,0.00010518884,-0.00013730068,-4.624484e-07,-3.999329e-06,6
0.00017416128,3.5547186e-05,2.1149004e-05,-2.9919576e-05,7.1220566e-06,9.496834e-06,1.6216132e-05,7.600457e-05,0.00012684088,-0.00011363393,-2.945719e-07,-2.818566e-06,6
0.0001593834,-9.764918e-06,6.5461204e-06,-7.595215e-06,-1.922343e-06,5.300267e-06,2.0747597e-05,6.543426e-05,0.00012365125,-8.627451e-05,-1.4694898e-06,1.3834875e-06,6
7.847291e-05,-5.205573e-05,-8.224612e-06,2.6439998e-06,-1.1980457e-05,-7.42641e-07,1.4704553e-05,5.3353295e-05,9.427712e-05,-6.730754e-05,-3.8193493e-06,7.264037e-06,6
1.9047126e-05,-6.077669e-05,-1.5777829e-05,-3.3981623e-06,-1.6048323e-05,-4.0999626e-06,9.3329045e-06,4.8489856e-05,5.785333e-05,-5.3711756e-05,-3.4836219e-06,1.0123306e-05,6
1.3333092e-05,-5.5062606e-05,-1.762417e-05,-1.8504184e-05,-1.4163018e-05,-2.4218061e-06,9.668129e-06,5.2186733e-05,2.9989851e-05,-4.1123065e-05,-1.1337041e-06,1.1136238e-05,6
3.632128e-05,-4.0620358e-05,-1.8631266e-05,-3.5624398e-05,-1.0486739e-05,7.669906e-07,1.4199586e-05,6.528317e-05,9.17604e-06,-2.9877165e-05,2.0912114e-07,1.14777795e-05,6
5.2595486e-05,-2.5171012e-05,-2.0645457e-05,-5.0059018e-05,-8.659241e-06,3.4522418e-06,1.5541902e-05,7.837961e-05,-1.51626045e-05,-2.0813306e-05,3.7700104e-07,8.462338e-06,6
4.3860156e-05,-3.103851e-05,-2.6855878e-05,-5.9290323e-05,-7.2765724e-06,2.7805065e-06,1.2184439e-05,7.939091e-05,-4.0676194e-05,-1.4435034e-05,7.1273047e-07,4.607656e-06,6
1.3136573e-05,-5.922996e-05,-3.759823e-05,-6.885732e-05,-4.9649734e-06,4.3027794e-07,9.330521e-06,6.999557e-05,-5.7797326e-05,-9.063859e-06,1.5520095e-06,6.627701e-06,6
-1.8258412e-05,-8.74214e-05,-5.3376058e-05,-8.1613456e-05,-4.618983e-06,-9.128542e-07,9.665737e-06,4.4486696e-05,-6.165836e-05,1.5106432e-06,1.5520421e-06,1.4018927e-05,6
-3.1022137e-05,-9.396028e-05,-6.999313e-05,-9.017336e-05,-4.932916e-06,-3.095235e-06,1.0504502e-05,-2.6747234e-06,-5.0580813e-05,2.0309757e-05,4.1432234e-08,1.8892417e-05,6
-3.2036416e-05,-7.5657474e-05,-7.905699e-05,-8.9333706e-05,-6.6539756e-06,-7.291805e-06,7.4827294e-06,-4.866119e-05,-3.3124998e-05,3.541619e-05,-2.140574e-06,1.8898287e-05,6
-3.0029414e-05,-5.2319185e-05,-7.6539254e-05,-8.362642e-05,-8.298196e-06,-9.809885e-06,5.803748e-06,-6.779178e-05,-1.617273e-05,3.743038e-05,-3.3154847e-06,1.6218575e-05,6
-2.4833282e-05,-3.8883998e-05,-6.4621956e-05,-7.77513e-05,-9.312168e-06,-8.635279e-06,6.810357e-06,-5.6373803e-05,-8.9895343e-07,2.9373618e-05,-3.986846e-06,1.3538864e-05,6
-2.030855e-05,-2.8805787e-05,-4.649424e-05,-6.952628e-05,-9.339397e-06,-6.2857343e-06,4.7956737e-06,-3.87454e-05,6.4859087e-06,2.0981155e-05,-3.4832635e-06,8.509269e-06,6
-2.7365419e-05,-1.3020699e-05,-2.853437e-05,-5.2405256e-05,-7.451196e-06,-6.2860763e-06,-2.0866378e-06,-3.2698586e-05,6.653254e-06,1.4938582e-05,-2.4761316e-06,-6.591276e-06,6
-4.516464e-05,1.3506745e-05,-1.544213e-05,-2.1184893e-05,-5.973182e-06,-6.2864187e-06,-6.9547596e-06,-2.0944899e-05,5.142106e-06,8.89601e-06,-6.2975414e-07,-2.5720197e-05,6
-6.430666e-05,4.0705592e-05,-9.399558e-06,1.658159e-05,-5.3012486e-06,-2.2583786e-06,-6.7874066e-06,2.5582403e-06,2.6238636e-06,1.1749447e-06,1.384474e-06,-3.66245e-05,6
-8.5966436e-05,4.1048563e-05,-1.2252995e-05,4.612346e-05,-5.439601e-06,7.625631e-07,-6.1165088e-06,2.035451e-05,-2.412117e-06,-9.735256e-06,-4.6182942e-07,-3.7793547e-05,6
-9.671599e-05,1.6382004e-05,-1.8295566e-05,5.753761e-05,-4.9794753e-06,-5.805737e-07,-8.299047e-06,2.6737036e-05,-7.2802486e-06,-2.232395e-05,-2.4759822e-06,-3.2248616e-05,6
-6.013208e-05,4.4719923e-06,-1.8127717e-05,5.434888e-05,-1.5947725e-06,-9.1661605e-07,-7.460304e-06,3.2448166e-05,-4.5951642e-06,-2.9541467e-05,-2.8116435e-06,-2.5360889e-05,6
2.5295962e-05,1.4550235e-05,-1.1917296e-05,4.3606924e-05,1.5973411e-06,1.0972301e-06,-1.5860842e-06,4.084489e-05,3.7967939e-06,-2.1316853e-05,-3.650849e-06,-2.0655196e-05,6
9.931025e-05,2.0600097e-05,-8.056763e-06,2.6822403e-05,1.8988399e-06,7.611849e-07,1.9382446e-06,3.6149377e-05,9.503165e-06,-4.1962307e-06,-2.8115642e-06,-1.7627992e-05,6
0.00010987752,5.5009637e-06,-6.881819e-06,7.855839e-06,-2.4162276e-07,1.2643882e-06,-7.6451165e-08,6.947882e-06,1.420244e-05,4.5319293e-06,4.19142e-08,-1.7286371e-05,6
7.797893e-05,-1.6144286e-05,-5.5390246e-06,-7.250193e-06,-4.3473995e-07,4.453178e-06,-3.937492e-06,-3.1988868e-05,1.8901716e-05,4.3640803e-06,2.0561451e-06,-1.5937649e-05,6
4.9437323e-05,-2.2347402e-05,-1.2849804e-21,-1.6145805e-05,1.7380165e-06,8.481213e-06,-4.105851e-06,-5.2126496e-05,2.15868e-05,-2.853437e-06,1.8883378e-06,-1.45889235e-05,6
4.1876865e-05,-1.6465367e-05,5.3711756e-06,-2.1516584e-05,1.9414867e-06,1.0830754e-05,-2.5957222e-06,-3.852643e-05,2.0747053e-05,-1.3595788e-05,1.5526819e-06,-1.4918686e-05,6
4.153392e-05,-1.32689165e-05,5.5390246e-06,-2.5208868e-05,7.245359e-07,1.06625575e-05,8.9352774e-08,-2.4345563e-06,1.0507746e-05,-2.5680933e-05,2.2241206e-06,-1.52484445e-05,6
3.699474e-05,-1.15831035e-05,6.210422e-06,-2.118009e-05,1.0798863e-06,9.319415e-06,3.277973e-06,2.9125393e-05,-6.949078e-06,-3.2059204e-05,2.392013e-06,-1.4403253e-05,6
3.1784162e-05,-5.533206e-06,9.231708e-06,3.326296e-06,1.2603726e-06,8.311972e-06,1.7668107e-06,3.5507954e-05,-2.3734505e-05,-3.121996e-05,1.3849626e-06,-1.30545095e-05,6
2.6237882e-05,6.894967e-06,1.1245899e-05,4.4617605e-05,-2.8966116e-07,7.640225e-06,-3.9405804e-06,2.1580765e-05,-2.8938332e-05,-3.1891355e-05,2.1006201e-07,-1.2545008e-05,6
1.8845256e-05,2.4694318e-05,1.4770733e-05,7.0466784e-05,-1.9291078e-06,6.2970826e-06,-4.9481973e-06,8.492827e-06,-1.8028633e-05,-3.524834e-05,2.1010695e-07,-1.3210447e-05,6
1.514531e-05,4.0815186e-05,2.1149004e-05,6.627095e-05,-6.0291273e-07,5.121788e-06,1.9330969e-06,7.825737e-06,-2.9227042e-06,-3.793393e-05,-4.6124356e-07,-1.3372333e-05,6
1.4298796e-05,4.8207898e-05,2.8366521e-05,4.5793735e-05,4.749614e-06,6.9677794e-06,1.317847e-05,1.4711865e-05,1.1511829e-05,-3.9108872e-05,-1.6361435e-06,-1.4373462e-05,6
-4.675438e-06,4.586535e-05,3.121996e-05,2.5148673e-05,9.824902e-06,9.653017e-06,2.3920298e-05,1.9415958e-05,1.6546805e-05,-3.944457e-05,-3.818136e-06,-1.5710284e-05,6
-5.03377e-05,2.8752082e-05,2.8030823e-05,1.0210482e-05,1.1465005e-05,1.0491912e-05,3.281578e-05,2.3784354e-05,6.3074995e-06,-3.776608e-05,-3.4823906e-06,-1.6207858e-05,6
-9.784632e-05,2.9106554e-06,2.1652551e-05,4.336152e-06,1.1307657e-05,1.25057495e-05,4.38933e-05,3.688092e-05,-5.610298e-06,-3.3234148e-05,-1.803851e-06,-1.4691234e-05,6
-0.00012235959,-1.6384647e-05,1.7288472e-05,1.9946523e-05,1.3511283e-05,1.4519589e-05,5.1445983e-05,5.467726e-05,-6.1143464e-06,-2.7191576e-05,-2.9315868e-07,-1.2503209e-05,6
-0.000109946035,-2.2419856e-05,1.4099336e-05,5.167042e-05,1.6657898e-05,1.4351387e-05,5.110975e-05,6.945232e-05,4.795353e-06,-1.8463415e-05,2.1043718e-07,-1.065088e-05,6
-6.110919e-05,-2.5601621e-05,8.89601e-06,6.979853e-05,1.6860145e-05,1.3679638e-05,4.842363e-05,9.161276e-05,1.7047847e-05,-7.721065e-06,-1.2521141e-07,-9.637791e-06,6
2.2472437e-05,-3.2979613e-05,1.6784924e-07,6.42599e-05,1.5678115e-05,1.3679284e-05,5.0437284e-05,0.00012669759,1.7215196e-05,2.0141908e-06,-1.2516143e-07,-8.624698e-06,6
0.00013962391,-2.8440305e-05,-2.853437e-06,4.4286226e-05,1.699385e-05,1.2671833e-05,5.5807923e-05,0.0001654751,-4.102158e-06,1.4267185e-05,2.105871e-07,-7.779451e-06,6
0.00023529067,-1.2413473e-06,3.8605326e-06,2.0284173e-05,1.821064e-05,1.2000083e-05,6.0171456e-05,0.00018125727,-2.9112196e-05,2.7191576e-05,5.463362e-07,-5.927104e-06,6
0.00022420533,2.4446972e-05,1.2588693e-05,-2.5195733e-08,1.4149489e-05,8.4748945e-06,6.252081e-05,0.00015474143,-3.112689e-05,2.4002442e-05,-6.2855617e-07,-2.7319586e-06,6
0.00012248138,3.183973e-05,2.18204e-05,-7.5780226e-06,8.6112195e-06,3.1033637e-06,6.822714e-05,9.9355544e-05,-1.23282725e-05,1.0070954e-06,-1.803449e-06,9.667397e-07,6
3.5863864e-05,3.402917e-05,3.776608e-05,-6.9062394e-06,5.9549798e-06,8.172088e-08,6.990509e-05,3.070956e-05,1.1170121e-05,-1.762417e-05,-2.1390942e-06,4.329743e-06,6
1.0847014e-05,4.6289562e-05,5.958648e-05,-2.285153e-05,5.2401556e-06,1.0884606e-06,5.983358e-05,-4.330759e-05,2.929734e-05,-1.6784923e-05,-1.1319468e-06,5.678559e-06,6
1.3357436e-05,6.10677e-05,7.234302e-05,-6.514915e-05,4.0930927e-06,3.7736909e-06,3.767693e-05,-0.00013058483,3.7017904e-05,-2.3498894e-06,-7.9619394e-07,3.670395e-06,6
1.0328829e-05,6.611059e-05,6.630045e-05,-9.301174e-05,1.0745746e-06,2.0948407e-06,8.638464e-06,-0.00022625453,3.1814077e-05,1.2924392e-05,-2.8103304e-06,9.908392e-07,6
5.1181796e-06,6.3768115e-05,5.471885e-05,-7.320515e-05,-2.1486258e-06,-3.948088e-06,-1.9896457e-05,-0.00028449384,2.1239077e-05,3.1387808e-05,-4.4887684e-06,6.6117565e-07,6
5.1108527e-06,5.89079e-05,4.7501333e-05,-2.1003649e-05,-1.9391648e-06,-8.816073e-06,-3.9535375e-05,-0.00027861475,1.217472e-05,5.3543907e-05,-4.488713e-06,2.3457073e-06,6
5.7749203e-06,4.766942e-05,4.2801556e-05,2.4819581e-05,-1.2932061e-06,-1.0662774e-05,-4.6585596e-05,-0.00024352987,-5.8232075e-07,7.368581e-05,-3.1458617e-06,4.701642e-06,6
5.642598e-07,3.3073964e-05,3.3401997e-05,4.345123e-05,-3.316467e-06,-1.0159586e-05,-3.836154e-05,-0.00019367426,-2.3242466e-05,8.879225e-05,-4.1529e-06,5.714784e-06,6
-9.681881e-06,1.7471415e-05,1.4938582e-05,3.1870015e-05,-7.3093397e-06,-1.2006286e-05,-2.124148e-05,-0.00010319914,-4.372057e-05,0.00010188449,-5.3277877e-06,6.7279325e-06,6
-1.9760175e-05,4.7223098e-06,-9.399558e-06,-2.0351486e-06,-1.3393969e-05,-1.553148e-05,-1.0667537e-05,9.599934e-06,-4.590311e-05,0.00011027695,-4.824183e-06,8.748179e-06,6
-2.8999228e-05,-7.523246e-06,-3.105211e-05,-3.459752e-05,-1.891315e-05,-1.8385277e-05,-1.1507347e-05,7.288349e-05,-3.7007598e-05,0.00010524147,-3.1456316e-06,1.076843e-05,6
-4.193097e-05,-2.127944e-05,-4.3137254e-05,-4.8864324e-05,-2.0747057e-05,-1.7378543e-05,-1.5368443e-05,5.794931e-05,-2.8615636e-05,8.3085375e-05,-1.1313826e-06,1.1613743e-05,6
-5.7716148e-05,-3.4867782e-05,-5.4551e-05,-4.886394e-05,-2.1457749e-05,-1.6875358e-05,-1.9397392e-05,-1.1292228e-06,-2.4419904e-05,5.3376058e-05,-4.599242e-07,1.1787661e-05,6
-6.527672e-05,-4.342064e-05,-6.730754e-05,-4.1646046e-05,-2.309711e-05,-1.9057758e-05,-3.450439e-05,-4.3926375e-05,-2.643459e-05,3.3401997e-05,7.1507884e-07,1.4143621e-05,6
-5.92415e-05,-4.8448663e-05,-7.687495e-05,-3.661019e-05,-2.4456702e-05,-2.157586e-05,-6.169654e-05,-3.855079e-05,-2.9456376e-05,3.27306e-05,5.472904e-07,1.7674533e-05,6
-5.0017148e-05,-7.915762e-05,-7.788205e-05,-3.258143e-05,-2.3300205e-05,-2.1072674e-05,-8.62031e-05,-1.336899e-05,-2.9121175e-05,5.052262e-05,-6.275924e-07,1.9694808e-05,6
-4.9688813e-05,-0.00013504394,-7.100023e-05,-2.385289e-05,-1.8057135e-05,-1.7380355e-05,-9.963161e-05,5.669143e-07,-2.4421894e-05,9.248493e-05,-9.632297e-07,2.2050779e-05,6
-5.5570905e-05,-0.00015383559,-6.4957654e-05,-1.2774462e-05,-1.17173495e-05,-1.1673843e-05,-9.896079e-05,1.1649384e-05,-7.973164e-06,0.00012806898,-2.917694e-07,2.69245e-05,6
-5.8263868e-05,-0.00011337645,-6.630045e-05,-6.5636646e-06,-1.20423365e-05,-8.48507e-06,-7.9658705e-05,2.7263786e-05,1.6868025e-05,0.00011296254,-4.5955557e-07,3.0623276e-05,6
-5.1557272e-05,-6.972817e-05,-6.630045e-05,-1.024263e-06,-1.4035122e-05,-7.646189e-06,-4.474664e-05,3.9689057e-05,3.0127618e-05,5.4047454e-05,-1.1308912e-06,3.1972166e-05,6
-3.5451118e-05,-4.823599e-05,-5.55581e-05,4.515138e-06,-1.3070498e-05,-3.7860214e-06,-8.3239365e-06,5.1778636e-05,2.5763042e-05,-1.2756542e-05,-1.4665252e-06,3.2817512e-05,6
-1.8673574e-05,-3.211498e-05,-3.709468e-05,8.711745e-06,-1.0014687e-05,4.098435e-07,1.9202756e-05,7.1253584e-05,1.804148e-05,-6.344701e-05,-1.4664607e-06,3.2655767e-05,6
2.8600695e-07,-1.5993963e-05,-1.8966964e-05,1.4922542e-05,-5.490054e-06,3.4307648e-06,3.363721e-05,8.837864e-05,1.50196975e-05,-8.274968e-05,-4.5929863e-07,3.064769e-05,6
1.572075e-05,-5.2441187e-06,-2.6855878e-06,1.5426464e-05,-1.6564052e-06,6.787384e-06,3.481157e-05,8.3683306e-05,1.38442565e-05,-7.872129e-05,-2.137726e-06,2.6625421e-05,6
2.695926e-05,1.1416483e-06,1.1245899e-05,-1.3580869e-06,2.0781058e-06,9.472605e-06,3.0614745e-05,6.874917e-05,2.0054184e-05,-6.9489586e-05,-2.6412088e-06,2.0588965e-05,6
4.20583e-05,1.5584186e-05,2.5009536e-05,-1.1764367e-05,4.8986353e-06,9.807936e-06,2.6753629e-05,6.959286e-05,2.8949697e-05,-6.814679e-05,1.55509e-06,1.5727459e-05,6
5.4471748e-05,3.2040913e-05,3.6758982e-05,2.247725e-05,7.08165e-06,9.807569e-06,2.0206913e-05,9.64532e-05,2.92849e-05,-7.3517964e-05,5.583538e-06,1.1537353e-05,6
5.580714e-05,3.758745e-05,4.213016e-05,9.2638606e-05,9.460738e-06,9.471502e-06,9.799672e-06,0.00013237739,2.0891943e-05,-7.8049896e-05,5.919305e-06,2.9758365e-07,6
5.2442756e-05,3.826636e-05,4.380865e-05,0.00015810019,1.1431503e-05,9.806833e-06,4.763599e-06,0.00016091623,2.4280307e-06,-7.502861e-05,3.4016355e-06,-1.2956372e-05,6
5.209965e-05,4.582709e-05,4.4815748e-05,0.0001862992,1.5991476e-05,1.21563535e-05,1.1812671e-05,0.00017770562,-2.929597e-05,-7.100023e-05,5.482664e-07,-2.1006997e-05,6
5.4106433e-05,5.4730623e-05,4.7165635e-05,0.00016817187,1.8008226e-05,1.517727e-05,1.8861741e-05,0.00016260365,-6.471266e-05,-7.855344e-05,-9.62307e-07,-2.5029238e-05,6
5.191698e-05,5.7927286e-05,4.6997786e-05,0.00011983166,1.579226e-05,1.8533885e-05,1.8693294e-05,0.00010705002,-8.653355e-05,-8.6610205e-05,-4.5868794e-07,-2.4519544e-05,6
4.5699144e-05,5.440998e-05,4.2801556e-05,4.2453532e-05,1.4491111e-05,2.0212008e-05,1.500001e-05,2.9340303e-05,-8.065932e-05,-7.032883e-05,5.484767e-07,-1.9645768e-05,6
3.7299265e-05,4.250022e-05,3.9108872e-05,-8.964345e-05,1.6311842e-05,1.8700994e-05,9.796082e-06,-5.7265428e-05,-5.19576e-05,-2.9037918e-05,8.842459e-07,-1.5946931e-05,6
2.6045946e-05,2.3372942e-05,3.8437476e-05,-0.00021636926,2.0667067e-05,1.5847187e-05,4.4242993e-06,-0.00013061106,-3.618026e-05,1.7959868e-05,2.7306608e-06,-1.5269376e-05,6
1.27784315e-05,1.2243838e-06,3.7262533e-05,-0.00023651078,2.221311e-05,1.3496926e-05,-1.283182e-06,-0.00014823074,-5.3637075e-05,3.5919737e-05,4.744923e-06,-1.4256119e-05,6
4.7142407e-06,-1.4713748e-05,3.0716412e-05,-0.00014637539,2.2003154e-05,1.0978815e-05,-4.6407727e-06,-0.00010424975,-7.8814955e-05,2.3498893e-05,5.584242e-06,-1.1564366e-05,6
8.231646e-06,-2.2259414e-05,1.8295566e-05,-3.6937323e-05,2.219104e-05,1.0978443e-05,5.8396633e-08,-5.0197807e-05,-7.86476e-05,-2.1820401e-06,3.5701253e-06,-1.0886801e-05,6
1.5609578e-05,-3.064432e-05,6.5461204e-06,2.550296e-05,2.2203276e-05,1.366366e-05,1.26464765e-05,-3.0387102e-05,-4.877093e-05,-2.5680933e-05,1.5560082e-06,-1.3062668e-05,6
1.5769992e-05,-4.6078894e-05,-2.1820401e-06,4.833082e-05,1.7799997e-05,1.48382305e-05,2.473101e-05,-4.4146236e-05,1.0798024e-06,-3.105211e-05,2.2274787e-06,-1.4734983e-05,6
3.0060107e-06,-5.3960248e-05,-1.2252995e-05,5.7059347e-05,1.0118141e-05,1.11451745e-05,2.6912438e-05,-7.3011804e-05,6.502987e-05,-3.1387808e-05,2.8989518e-06,-1.3889556e-05,6
-1.747904e-05,-4.0021197e-05,-2.6016633e-05,4.8499398e-05,7.015945e-07,5.7736233e-06,1.9190753e-05,-8.962437e-05,0.0001370367,-3.8605325e-05,2.3954785e-06,-1.1029934e-05,6
-3.56142e-05,-1.9536023e-05,-3.9948118e-05,6.8731506e-06,-5.359229e-06,7.377721e-07,1.3147561e-05,-7.266709e-05,0.00019041226,-4.9347676e-05,1.5563097e-06,-7.4989116e-06,6
-4.7203248e-05,-2.389253e-05,-4.7333484e-05,-5.053092e-05,-6.83019e-06,-6.3122707e-06,1.3818341e-05,-4.0099818e-05,0.00018974037,-5.9250782e-05,3.8144142e-07,-3.8000358e-06,6
-5.2749725e-05,-4.5033958e-05,-4.0787367e-05,-6.2447856e-05,-7.3723218e-06,-1.4369408e-05,1.6839007e-05,-4.3116586e-05,0.00013267114,-5.6565194e-05,7.172167e-07,-9.4040274e-07,6
-5.7121255e-05,-5.106895e-05,-2.0813306e-05,-8.903591e-06,-1.0046985e-05,-2.0412357e-05,1.5495587e-05,-9.8166616e-05,5.6131397e-05,-3.692683e-05,2.5636366e-06,1.2478372e-06,6
-5.6121615e-05,-3.3437194e-05,3.6926833e-06,6.327194e-05,-1.1872101e-05,-2.343402e-05,1.1802279e-05,-0.00017067297,-2.6643883e-07,-1.5106431e-05,2.563715e-06,1.925438e-06,6
-4.6393823e-05,-1.5469739e-05,1.8631266e-05,0.000101541926,-8.725387e-06,-2.2930846e-05,1.1130256e-05,-0.00019987421,-2.4437222e-05,4.1962307e-06,2.1390501e-07,2.4351925e-06,6
-3.196625e-05,-1.51264485e-05,1.544213e-05,7.753985e-05,-4.998054e-06,-2.0413487e-05,1.0458231e-05,-0.00018241335,-2.7459e-05,2.5177385e-05,5.496825e-07,2.6092528e-06,6
-2.0559966e-05,-2.7707547e-05,2.853437e-06,-9.237851e-06,-5.676954e-06,-1.8399673e-05,4.0793293e-06,-0.00016428108,-3.2998516e-05,4.0619514e-05,1.5568586e-06,3.2868659e-06,6
-1.553196e-05,-3.760305e-05,1.5106432e-06,-6.949537e-05,-9.732044e-06,-1.8903596e-05,-9.517092e-06,-0.00014228829,-4.3573506e-05,4.1458763e-05,3.2354324e-06,3.1252357e-06,6
-1.2182445e-05,-3.7595448e-05,1.9974059e-05,-2.182583e-05,-1.3382917e-05,-1.9743224e-05,-2.143502e-05,-9.4111034e-05,-3.048176e-05,3.0045014e-05,2.8998145e-06,-5.7677614e-08,6
-6.083233e-07,-2.466345e-05,4.7165635e-05,9.46619e-05,-1.106607e-05,-1.772941e-05,-1.6903727e-05,-2.0924215e-05,4.430393e-06,2.433814e-05,8.857042e-07,-3.0727383e-06,6
1.6001275e-05,2.200038e-06,6.193637e-05,0.00018765074,-6.700797e-06,-1.2526464e-05,4.58034e-06,5.6290988e-05,3.162148e-05,4.0451665e-05,-1.1284045e-06,-4.7450003e-06,6
2.9757433e-05,3.829524e-05,5.5893797e-05,0.0002064502,-4.6575565e-06,-5.9807226e-06,2.5896554e-05,0.000111350084,4.9245158e-05,5.6565194e-05,-3.3103606e-06,-4.9066157e-06,6
3.5960373e-05,7.204055e-05,3.944457e-05,0.00017271287,-4.365284e-06,-2.6241155e-06,3.4959776e-05,0.00015667394,6.821163e-05,4.6662088e-05,-3.3102772e-06,-3.7254326e-06,6
3.3099448e-05,9.135084e-05,2.0981155e-05,0.00012017641,-6.6869643e-06,-3.6315917e-06,3.680547e-05,0.00020871176,7.2575225e-05,1.5274281e-05,-2.4709464e-06,-3.0477954e-06,6
2.43638e-05,9.0351365e-05,5.035477e-07,5.8072543e-05,-9.034507e-06,-5.3104654e-06,3.6972677e-05,0.00025672122,5.310422e-05,-9.231708e-06,-2.1351636e-06,-2.7058516e-06,6
8.9141795e-06,8.0959435e-05,-1.4267185e-05,-1.44379765e-05,-1.0411084e-05,-5.646544e-06,2.891527e-05,0.00026108985,1.9533883e-05,-1.1917296e-05,-2.9743258e-06,-3.4971382e-07,6
-2.1641878e-05,7.022473e-05,-1.6784923e-05,-8.896268e-05,-9.026614e-06,-5.311228e-06,1.7165177e-05,0.00019529753,-1.672204e-05,-1.1749447e-06,-3.3099382e-06,1.1671815e-06,6
-6.562588e-05,6.0832797e-05,-8.7281605e-06,-0.00014787742,-8.380996e-06,-6.8222525e-06,5.079381e-06,6.505109e-05,-4.1732066e-05,1.1245899e-05,-3.981248e-06,3.3419155e-07,6
-8.5103886e-05,6.050474e-05,-1.5106431e-05,-0.00017976842,-1.0571676e-05,-1.017962e-05,-1.8923709e-05,-6.788093e-05,-5.6838984e-05,2.5680933e-05,-5.1561074e-06,-1.6737388e-06,6
-6.1948194e-05,6.319798e-05,-5.975433e-05,-0.0001843,-1.18791795e-05,-1.0851399e-05,-4.4940993e-05,-0.00011923822,-5.163615e-05,3.4241246e-05,-4.820322e-06,-2.3388734e-06,6
-2.2678974e-05,5.347036e-05,-0.00011598382,-0.0001712074,-9.235747e-06,-8.166194e-06,-4.9641425e-05,-9.506334e-05,-3.115903e-05,3.4073397e-05,-4.820234e-06,-3.6753995e-06,6
1.424035e-05,3.3168257e-05,-0.00013411154,-0.00015408643,-5.522835e-06,-4.9774435e-06,-4.091392e-05,-9.55623e-05,-3.3005857e-05,2.7695125e-05,-6.16294e-06,-6.690416e-06,6
5.0656126e-05,2.2433562e-05,-0.00010540932,-0.00014300803,-2.1538137e-06,-1.1172955e-06,-3.671835e-05,-0.000131981,-5.9694376e-05,1.8631266e-05,-6.1628507e-06,-8.194785e-06,6
8.2036415e-05,2.848379e-05,-6.193637e-05,-0.0001366294,-2.0250645e-06,3.0785532e-06,-3.621546e-05,-9.5049574e-05,-9.074697e-05,1.1749447e-05,-5.1556653e-06,-7.013562e-06,6
9.864598e-05,4.242294e-05,-2.433814e-05,-0.00012085124,-3.4964164e-06,5.7637544e-06,-3.7726764e-05,5.35016e-05,-0.000103504,4.867628e-06,-2.4699862e-06,-5.328788e-06,6
0.0001004848,4.4109096e-05,3.3569847e-07,-8.946309e-05,-2.6743528e-06,7.77756e-06,-4.041301e-05,0.0001758683,-7.883066e-05,-4.1962307e-06,8.870874e-07,-3.6440103e-06,6
9.57775e-05,3.404581e-05,9.903105e-06,-3.9947212e-05,-1.0139079e-06,1.07984615e-05,-4.1085073e-05,0.00014146381,-3.4686793e-05,-7.721065e-06,1.3907276e-06,-2.1270787e-06,6
8.97274e-05,2.6500267e-05,1.1581597e-05,2.064671e-05,2.7183892e-06,1.28122665e-05,-3.688951e-05,-2.2855987e-05,-3.4673192e-06,7.721065e-06,1.8943663e-06,-1.1136916e-06,6
7.931323e-05,2.3990206e-05,2.0645457e-05,6.445571e-05,8.722285e-06,1.3818976e-05,-3.370104e-05,-0.00017945471,1.3820666e-05,2.7359425e-05,3.9086494e-06,-2.2823408e-06,6
6.2856474e-05,1.5941121e-05,4.448005e-05,3.9614362e-05,1.326535e-05,1.5161382e-05,-3.1183972e-05,-0.00020043126,3.4969184e-05,2.7527276e-05,6.4264814e-06,-6.8079703e-06,6
3.8846498e-05,-1.0235678e-05,6.999313e-05,-3.8435184e-05,1.5804137e-05,1.5160995e-05,-2.480637e-05,-0.00011364858,3.832568e-05,5.2033265e-06,7.6015185e-06,-1.0830049e-05,6
4.4298695e-06,-5.655438e-05,7.6371405e-05,-5.8408907e-05,1.5258218e-05,1.24750195e-05,-1.3728993e-05,-5.489673e-05,7.440936e-06,-2.5513084e-05,6.9302164e-06,-1.0655894e-05,6
-3.0490308e-05,-9.498417e-05,6.764325e-05,3.1558633e-05,1.1432461e-05,8.781948e-06,-6.3742436e-07,-7.0837785e-05,-2.5458e-05,-5.287251e-05,6.2589143e-06,-8.299695e-06,6
-6.0207163e-05,-0.00010387249,5.7572288e-05,0.00016348847,5.38218e-06,4.7531785e-06,9.432851e-06,-9.8696124e-05,-4.3082655e-05,-6.1432824e-05,5.9233103e-06,-4.9363966e-06,6
-8.6567044e-05,-9.245104e-05,4.7165635e-05,0.00022559303,-1.3583222e-06,8.922577e-07,1.2453461e-05,-9.7348704e-05,-5.634323e-05,-5.052262e-05,4.2449137e-06,-1.4052453e-06,6
-0.00010084177,-6.978369e-05,3.121996e-05,0.0001987375,-5.009213e-06,-1.7937206e-06,8.088703e-06,-8.693742e-05,-7.6317774e-05,-4.0787367e-05,2.9022158e-06,-5.6130816e-08,6
-9.2121154e-05,-6.322987e-05,8.3924615e-06,0.00015509703,-5.04239e-06,-5.318944e-06,-3.6614242e-06,-8.29044e-05,-0.000104516934,-3.4576944e-05,3.0701615e-06,-5.5335494e-07,6
-6.510497e-05,-8.638536e-05,-1.2420844e-05,0.00013478762,-8.4474607e-07,-8.340619e-06,-2.0782729e-05,-8.122127e-05,-0.00012230943,-2.9709316e-05,3.5738067e-06,-1.5541226e-06,6
-4.497062e-05,-9.007033e-05,-2.450599e-05,0.000108771324,5.0588774e-06,-9.180259e-06,-2.4308247e-05,-6.392815e-05,-0.00010166447,-2.9037918e-05,3.7417533e-06,-5.406968e-07,6
-4.128549e-05,-5.5149972e-05,-3.2394903e-05,4.4988956e-05,8.036742e-06,-1.0691291e-05,-7.3561614e-06,-3.18643e-05,-3.6203746e-05,-2.7359425e-05,3.5740027e-06,2.1512255e-06,6
-5.388174e-05,-2.6440037e-05,-4.9347676e-05,-3.490694e-05,5.883074e-06,-1.3880818e-05,1.4463553e-05,-5.3394688e-06,4.772039e-05,-2.18204e-05,1.2242125e-06,4.843151e-06,6
-8.460571e-05,-3.0964246e-05,-7.402151e-05,-9.617158e-05,-1.3323032e-06,-1.9588082e-05,2.688371e-05,4.0647424e-06,0.000106802836,-1.3595788e-05,-2.4683711e-06,7.1993813e-06,6
-0.00010576228,-3.2635013e-05,-0.00010054169,-0.00013343379,-1.24439985e-05,-2.4120407e-05,3.225419e-05,1.7497337e-05,0.00012660856,2.6855878e-06,-7.16805e-06,8.884219e-06,6
-9.855232e-05,-6.4428054e-06,-0.00012504768,-0.00016112857,-2.2137541e-05,-2.5127894e-05,4.198876e-05,4.4693574e-05,0.00012123691,1.8631266e-05,-8.678594e-06,1.0569059e-05,6
-7.5396696e-05,8.671355e-06,-0.00014132906,-0.00017959163,-2.5688325e-05,-2.2778395e-05,5.6423098e-05,6.29938e-05,0.00010780848,2.870222e-05,-8.678492e-06,1.1246806e-05,6
-6.130493e-05,-1.8680335e-05,-0.00014267185,-0.00017455584,-2.687169e-05,-1.9925355e-05,6.179358e-05,6.551621e-05,0.0001081437,4.0787367e-05,-8.84624e-06,1.2595956e-05,6
-6.2487445e-05,-6.080276e-05,-0.00012857252,-0.00014551757,-2.7507911e-05,-1.7911556e-05,5.4743214e-05,6.6192275e-05,0.00012794943,5.0858318e-05,-1.0692479e-05,1.2938012e-05,6
-7.541941e-05,-8.0097685e-05,-0.00010759136,-0.000110772446,-2.6543014e-05,-1.572991e-05,4.0139632e-05,5.8475885e-05,0.00014406246,5.1194016e-05,-1.3377965e-05,1.1265881e-05,6
-9.3890405e-05,-7.75722e-05,-8.6610205e-05,-8.391623e-05,-2.685829e-05,-1.48910585e-05,2.0836267e-05,4.7688045e-06,0.00013096974,4.4983597e-05,-1.3042164e-05,9.425905e-06,6
-8.7351866e-05,-6.64864e-05,-6.562905e-05,-5.7227873e-05,-2.6678603e-05,-1.5227151e-05,-1.6562359e-06,-9.476112e-05,8.581782e-05,4.0115967e-05,-1.0356471e-05,7.5859307e-06,6
-5.513239e-05,-5.0700823e-05,-4.5822842e-05,-2.8021776e-05,-2.3528466e-05,-1.4052603e-05,-2.549153e-05,-0.00016055335,4.2176533e-05,3.743038e-05,-7.670778e-06,4.9067153e-06,6
-2.5934209e-05,-3.726513e-05,-2.9037918e-05,-3.6833057e-06,-1.9125015e-05,-1.3045905e-05,-3.3549e-05,-0.00013218213,2.6230375e-05,2.7862974e-05,-5.152936e-06,3.570296e-06,6
-9.828268e-06,-3.9607265e-05,-1.3595788e-05,1.1423456e-05,-1.5617556e-05,-1.069641e-05,-1.5757687e-05,-4.976346e-05,2.4215702e-05,6.210422e-06,-3.4743373e-06,4.7516182e-06,6
1.2421943e-06,-4.480283e-05,1.5106432e-06,1.8809153e-05,-1.0767775e-05,-6.332727e-06,1.3950919e-05,2.3591347e-05,2.0858237e-05,-1.2924392e-05,-2.4671353e-06,5.932945e-06,6
1.5501788e-05,-2.8345841e-05,1.9302663e-05,3.1230327e-05,-3.6785589e-06,-1.129798e-06,3.1574375e-05,7.395081e-05,2.2871945e-05,-1.9302663e-05,-2.1313308e-06,6.946426e-06,6
3.0768475e-05,6.0710195e-06,4.2801556e-05,2.8545068e-05,3.3323417e-06,3.905283e-06,2.3852603e-05,0.00010567902,2.7235546e-05,-1.4435034e-05,-1.2919786e-06,7.456361e-06,6
3.8146245e-05,3.1256175e-05,6.596475e-05,-7.988522e-05,9.050564e-06,7.597568e-06,1.1922393e-06,0.00010618727,1.3135729e-05,-1.0742351e-05,2.1877298e-07,6.623505e-06,6
3.8642196e-05,3.07604e-05,8.123903e-05,-0.00020493257,1.3435511e-05,1.1625552e-05,-1.7439741e-05,8.000749e-05,-1.9595354e-05,-9.063859e-06,1.5616752e-06,3.272917e-06,6
4.0816638e-05,2.1872163e-05,9.382772e-05,-0.0001376247,1.6582331e-05,1.4646441e-05,-2.784711e-05,6.5745015e-05,-4.9640847e-05,2.5680933e-05,1.3939349e-06,-4.133692e-07,6
4.215183e-05,2.6579724e-05,0.00010658427,0.00013496279,1.8463574e-05,1.5820986e-05,-3.1204814e-05,7.028165e-05,-6.541916e-05,9.8527504e-05,1.2261952e-06,-3.260405e-06,6
3.845154e-05,4.2533185e-05,0.00010826276,0.00040486467,2.0302e-05,1.51491895e-05,-2.2141678e-05,7.716818e-05,-6.6762426e-05,0.0001414969,2.06555e-06,-5.100342e-06,6
2.602309e-05,4.64015e-05,0.00010121309,0.00050742086,2.4639727e-05,1.548449e-05,-5.357474e-06,8.791525e-05,-6.021679e-05,0.00011631952,1.8978113e-06,-3.91899e-06,6
7.216366e-06,1.552503e-05,9.1813534e-05,0.00045438088,2.753494e-05,1.6491183e-05,1.2937367e-05,0.000118636395,-4.628578e-05,4.8172733e-05,1.0586773e-06,-2.234087e-06,6
-1.19260585e-05,-3.49898e-05,8.442817e-05,0.00034477565,2.8844423e-05,1.9344221e-05,2.9553717e-05,0.00015623933,-2.7990693e-05,-2.4673838e-05,-1.7946493e-06,-1.052728e-06,6
-3.173988e-05,-5.1095532e-05,7.603571e-05,0.00023097418,2.9517454e-05,1.9847368e-05,3.8448998e-05,0.0001686649,-1.2045494e-05,-8.274968e-05,-3.1373313e-06,1.286343e-07,6
-4.450404e-05,-1.41609025e-05,6.2775616e-05,0.000111465844,2.7532014e-05,1.7497077e-05,3.0895055e-05,0.00015087762,-3.4856603e-06,-0.00012051575,-2.1301228e-06,6.3860176e-07,6
-2.1180616e-05,4.1740695e-05,4.5487144e-05,-6.0283014e-06,2.1613874e-05,1.648958e-05,1.31023035e-05,0.00013476882,-7.682369e-06,-0.00013864347,-1.7943116e-06,1.1485735e-06,6
5.065124e-05,7.330415e-05,2.9877165e-05,-0.00010035925,1.711048e-05,1.9006917e-05,2.1913718e-06,0.00014182321,-2.0775089e-05,-0.0001451896,-1.626349e-06,-1.0270397e-06,6
0.00013389684,7.532615e-05,1.4938582e-05,-0.00016514873,1.5769618e-05,2.0517156e-05,3.029887e-06,0.0001545845,-3.3699955e-05,-0.00014535744,-2.8343976e-07,-4.041896e-06,6
0.00016225575,6.72772e-05,-5.035477e-06,-0.0002042573,1.4057625e-05,1.8670413e-05,6.218288e-06,0.0001458611,-3.856806e-05,-0.00013730068,-1.1547602e-07,-5.3782574e-06,6
0.00012565697,6.0067494e-05,-2.9373618e-05,-0.0002230561,9.3995895e-06,1.3298834e-05,1.1588725e-05,0.00011615651,-2.8161887e-05,-0.00011984436,-1.1224578e-06,-3.6933284e-06,6
7.2776835e-05,5.5711225e-05,-4.9515525e-05,-0.0002222165,3.8344497e-06,9.7735965e-06,2.5855172e-05,8.326281e-05,-1.8091408e-05,-9.684901e-05,-2.465134e-06,-2.176246e-06,6
4.2724194e-05,5.252991e-05,-5.7572288e-05,-0.00020761332,-1.7127794e-06,1.1787382e-05,4.549279e-05,4.919417e-05,-2.6987896e-05,-7.6371405e-05,-1.7936215e-06,-3.0090494e-06,6
3.600259e-05,4.229893e-05,-5.48867e-05,-0.00019653495,-5.7060934e-06,1.598321e-05,6.110204e-05,1.0090047e-05,-6.039037e-05,-6.210422e-05,-1.1501164e-07,-4.345398e-06,6
3.1966574e-05,2.0318505e-05,-4.9515525e-05,-0.0001814282,-1.0112416e-05,1.7829147e-05,6.580106e-05,-4.680609e-05,-8.875737e-05,-5.471885e-05,-9.541412e-07,-5.6817426e-06,6
2.5077117e-05,2.8700115e-06,-4.867628e-05,-0.00013325515,-1.5630827e-05,1.6821647e-05,5.9757745e-05,-0.00011226253,-7.5162054e-05,-4.448005e-05,-2.9682142e-06,-7.5216326e-06,6
2.3390987e-05,5.563431e-06,-4.39765e-05,-5.738698e-05,-1.746553e-05,1.5646296e-05,4.5321965e-05,-0.0001468347,-6.8478917e-06,-2.5177385e-05,-4.3108885e-06,-8.354424e-06,6
2.6572481e-05,2.0006299e-05,-2.7359425e-05,3.0390586e-06,-1.21332505e-05,1.564589e-05,2.081523e-05,-0.0001691539,6.331262e-05,-8.392462e-07,-4.6464697e-06,-7.005172e-06,6
2.6564838e-05,2.8742294e-05,-1.0238804e-05,1.7474407e-05,-6.722622e-06,1.3631294e-05,-9.901932e-06,-0.00021799325,8.5132546e-05,1.8631266e-05,-3.8071018e-06,-6.830862e-06,6
2.034677e-05,3.3449913e-05,1.8463417e-06,-3.6742822e-06,-6.40449e-06,8.259712e-06,-3.474437e-05,-0.00023645189,6.65008e-05,3.0716412e-05,-2.7998876e-06,-7.1600966e-06,6
1.1610962e-05,3.9332477e-05,1.2252995e-05,-2.2473085e-05,-8.772021e-06,1.0417876e-06,-5.371209e-05,-0.0001562152,3.276263e-05,3.8773174e-05,-4.47826e-06,-7.3214783e-06,6
8.4141775e-06,4.2361607e-05,2.2491799e-05,-1.7437296e-05,-8.396841e-06,-2.9870027e-06,-6.730863e-05,-3.6701756e-05,3.7242362e-06,5.018692e-05,-5.4852326e-06,-4.9651185e-06,6
1.0756416e-05,3.6326885e-05,2.9373618e-05,4.886966e-06,-4.407317e-06,-3.3231083e-06,-7.066637e-05,1.5671987e-05,-7.3542874e-06,6.2943465e-05,-3.974467e-06,-4.4550984e-06,6
9.573818e-06,2.3074646e-05,3.0716412e-05,2.7211225e-05,-2.3815664e-06,-4.3306113e-06,-6.210682e-05,-1.101126e-05,-6.3476655e-06,6.730754e-05,-2.7994015e-06,-7.637757e-06,6
9.2304645e-06,8.311766e-06,3.0212863e-05,4.399646e-05,-1.6894803e-06,-5.505965e-06,-4.0455026e-05,-4.071579e-05,-5.341045e-06,5.8579386e-05,-2.4635788e-06,-1.0316866e-05,6
1.962946e-05,-2.5905777e-06,3.0716412e-05,5.3396325e-05,-8.924935e-07,-3.6600318e-06,-1.3432061e-05,-2.090479e-05,-5.1736697e-06,4.9179827e-05,-7.849643e-07,-9.638987e-06,6
2.851781e-05,-1.3157221e-05,3.1891355e-05,5.4235883e-05,9.888738e-07,3.2241964e-08,6.205539e-06,2.7608432e-05,-3.831348e-06,5.1865416e-05,1.2293517e-06,-6.275517e-06,6
2.2803275e-05,-2.2716766e-05,3.1387808e-05,5.205415e-05,4.33774e-06,5.0673093e-06,1.0065307e-05,7.1254035e-05,-1.1462326e-06,5.2201114e-05,8.937762e-07,-3.2477424e-06,6
2.094927e-05,-2.4219544e-05,3.2059204e-05,5.7425637e-05,8.675644e-06,7.752486e-06,3.6862687e-06,0.000107682106,6.070812e-06,4.0451665e-05,-7.845908e-07,-2.1996526e-07,6
3.4033845e-05,-1.7329858e-05,3.978027e-05,8.4617524e-05,1.0060196e-05,1.0101967e-05,-4.371263e-06,0.00015048846,2.0673224e-05,2.3666742e-05,-4.4876515e-07,2.3042678e-06,6
4.476853e-05,-1.1782962e-05,5.0858318e-05,0.00013900097,1.2712343e-05,1.1108651e-05,-4.7077306e-06,0.00018188107,3.3093595e-05,1.2420844e-05,1.565551e-06,4.1571056e-06,6
4.5264413e-05,-7.7467075e-06,6.243992e-05,0.00018264208,1.6910428e-05,8.926199e-06,3.0125648e-06,0.0001686258,3.2421725e-05,1.0238804e-05,1.9013756e-06,6.5134946e-06,6
3.9214166e-05,3.003519e-06,6.831464e-05,0.000178614,1.6435484e-05,4.897407e-06,8.047268e-06,0.00011911509,1.5132782e-05,2.1316853e-05,7.2655786e-07,7.191395e-06,6
3.2324675e-05,1.24109565e-05,6.9657435e-05,0.00012003493,1.06851985e-05,-4.7417998e-07,9.053588e-06,8.2696606e-05,-6.1845417e-06,4.4144348e-05,1.5659326e-06,6.190805e-06,6
2.6274429e-05,-1.0091024e-06,7.402151e-05,-2.381156e-05,6.685516e-06,-1.4816892e-06,1.7277427e-05,7.313401e-05,-1.7263064e-05,6.529335e-05,3.244554e-06,6.8687095e-06,6
1.6867196e-05,-1.862539e-05,7.9896236e-05,-0.00018763212,8.197883e-06,2.5462812e-06,2.8858247e-05,5.0647035e-05,-1.9781273e-05,7.267872e-05,5.258873e-06,9.56081e-06,6
4.9422215e-06,-1.4253423e-05,8.157473e-05,-0.00021431984,1.1689363e-05,4.727908e-06,2.9361016e-05,-3.3956012e-06,-2.1795933e-05,6.848249e-05,7.94459e-06,1.3260007e-05,6
-3.793619e-06,-8.035111e-06,7.418936e-05,-7.265479e-05,1.3409632e-05,3.55255e-06,1.3246709e-05,-6.2473715e-05,-3.0860265e-05,5.7572288e-05,7.609021e-06,1.7630606e-05,6
-1.43758025e-05,-2.5147841e-05,5.690089e-05,7.320651e-05,1.1369161e-05,3.6300037e-07,-1.0756515e-05,-0.000121383964,-5.7548765e-05,4.8172733e-05,5.5949604e-06,2.1665506e-05,6
-3.0161314e-05,-3.4539506e-05,3.4073397e-05,9.939129e-05,8.843437e-06,-4.5050406e-06,-3.0227811e-05,-0.00018616894,-9.095123e-05,4.649424e-05,4.2522984e-06,2.6036108e-05,6
-4.1750594e-05,-9.689919e-06,8.7281605e-06,6.867518e-05,9.381942e-06,-8.701685e-06,-4.2313743e-05,-0.00025196103,-0.000117975425,4.649424e-05,3.413184e-06,2.9063922e-05,6
-4.075119e-05,1.6502461e-05,-1.6784923e-05,6.9682574e-05,1.068245e-05,-1.3401881e-05,-5.0539144e-05,-0.0003008003,-0.00013442512,3.4241246e-05,2.5740692e-06,2.8063356e-05,6
-3.9080383e-05,2.658132e-05,-3.256275e-05,7.45505e-05,9.696163e-06,-1.7094979e-05,-5.272197e-05,-0.00030650236,-0.00013157216,5.2033265e-06,1.7349557e-06,2.3034409e-05,6
-4.9830425e-05,2.977836e-05,-4.0619514e-05,4.131665e-05,6.686316e-06,-1.6424e-05,-4.36589e-05,-0.00027359906,-0.00010270256,-3.121996e-05,1.9029379e-06,1.4648481e-05,6
-7.132282e-05,2.6597132e-05,-4.380865e-05,1.5468166e-05,4.1297853e-06,-1.1892483e-05,-3.14067e-05,-0.00023733877,-5.8558675e-05,-6.630045e-05,2.5744687e-06,4.416214e-06,6
-0.00010221478,1.3177102e-05,-4.39765e-05,4.2995736e-05,3.8336198e-06,-6.1860264e-06,-2.2175784e-05,-0.00020611397,-2.3478651e-05,-9.3156326e-05,5.260191e-06,-5.4803513e-06,6
-0.00013629587,-5.278401e-06,-4.448005e-05,0.000103757455,5.830056e-06,-1.3188151e-06,-1.51269105e-05,-0.00015474726,-4.6800023e-06,-0.00010557717,6.2674217e-06,-1.1516381e-05,6
-0.0001398284,-2.1048314e-05,-4.347295e-05,0.00014504867,3.966276e-06,1.702055e-06,-8.749435e-06,-7.76996e-05,1.3950796e-05,-9.449912e-05,5.9318577e-06,-1.3859725e-05,6
-9.0152724e-05,-2.0369e-05,-3.8101778e-05,0.00013162103,-6.94086e-07,4.2193756e-06,-2.7076624e-06,-1.6933327e-05,3.2245895e-05,-7.872129e-05,6.603391e-06,-2.224564e-05,6
-5.900103e-06,-1.1968617e-05,-3.0716412e-05,7.320978e-05,-3.75432e-06,9.086586e-06,-2.0370649e-06,1.0934503e-05,4.802326e-05,-7.956054e-05,7.610622e-06,-4.0366805e-05,6
4.343987e-05,-3.545959e-05,-3.508049e-05,-1.9863821e-06,-7.0995306e-06,1.3450249e-05,-8.751834e-06,2.7724287e-05,8.159264e-05,-9.1477836e-05,7.946458e-06,-5.345249e-05,6
1.5233494e-05,-0.00010359845,-5.690089e-05,-0.00010387058,-1.2953744e-05,1.37855295e-05,-1.3452417e-05,4.8038906e-05,0.000105762454,-0.00010154879,8.2822935e-06,-5.4117336e-05,6
-2.942211e-05,-0.00016166636,-7.570001e-05,-0.00028783307,-2.0213462e-05,9.58888e-06,-7.746347e-06,5.6604087e-05,8.1256e-05,-9.248493e-05,8.953829e-06,-4.9243146e-05,6
6.154223e-06,-0.00014118082,-6.865034e-05,-0.0004246299,-2.4542393e-05,4.2172837e-06,7.1914296e-06,5.409121e-05,4.6678597e-05,-5.941863e-05,8.28257e-06,-4.1179825e-05,6
0.0001424401,-6.077311e-05,-4.0787367e-05,-0.00035681852,-2.1529428e-05,4.7204135e-06,2.8003928e-05,6.953821e-05,3.996416e-05,-1.9974059e-05,3.918629e-06,-3.0934454e-05,6
0.00026496232,-4.871375e-06,-2.7023727e-05,-0.00013273949,-1.4673605e-05,6.902034e-06,5.166986e-05,0.000113351736,5.439873e-05,2.7695125e-05,-2.774614e-07,-2.1864029e-05,6
0.00025958344,-1.1707533e-06,-4.3305103e-05,8.747901e-05,-1.0099935e-05,4.8874226e-06,7.147526e-05,0.00015951516,6.9169e-05,7.116808e-05,-1.1165693e-06,-1.3800695e-05,6
0.00013368881,-1.5765698e-05,-6.210422e-05,0.0001764394,-7.4479185e-06,3.5507205e-07,8.020261e-05,0.00017966195,7.974304e-05,9.047074e-05,2.263664e-07,-7.4158525e-06,6
-1.8054629e-05,-3.1032036e-05,-6.193637e-05,0.00015378003,-6.438745e-06,-3.8415787e-06,7.78519e-05,0.00017127435,9.51847e-05,8.912795e-05,5.86586e-08,-3.7165942e-06,6
-0.00010198697,-4.5626977e-05,-4.884413e-05,0.0001383382,-4.7317985e-06,-6.35974e-06,6.979433e-05,0.00014929098,0.00012220796,7.234302e-05,-1.7875417e-06,-5.208813e-07,6
-0.00010065189,-4.0583553e-05,-2.4170291e-05,0.00015294137,-7.46819e-07,-6.5280105e-06,4.8980204e-05,0.00011673312,0.00013328555,5.3543907e-05,-1.1160034e-06,4.689025e-06,6
-7.632147e-05,-5.830808e-06,8.7281605e-06,0.00011819686,2.9747266e-06,-8.374773e-06,6.6813773e-06,5.6815836e-05,8.997998e-05,4.0283816e-05,-7.801616e-07,1.17452755e-05,6
-8.0525424e-05,2.8754086e-05,4.0619514e-05,4.5686276e-05,4.3190385e-06,-1.2739278e-05,-4.870969e-05,-2.6432497e-05,3.2014627e-06,3.289845e-05,-1.4514153e-06,1.6115942e-05,6
-9.161119e-05,3.0440535e-05,6.395056e-05,-1.1885729e-05,5.964324e-06,-1.5089588e-05,-8.5637344e-05,-6.872561e-05,-7.5184595e-05,3.4576944e-05,-1.1155734e-06,1.7297476e-05,6
-7.298765e-05,1.3999264e-05,7.217517e-05,-1.8767263e-05,9.866663e-06,-1.4082915e-05,-8.681312e-05,-4.723601e-05,-0.000112951144,4.649424e-05,-1.451127e-06,1.596127e-05,6
-3.5229295e-05,1.5014319e-05,6.932174e-05,1.9670497e-05,1.1686562e-05,-1.2908396e-05,-6.24758e-05,-7.6186925e-06,-0.00013057576,6.428626e-05,-2.290227e-06,1.4457221e-05,6
-5.8634064e-06,2.8114522e-05,5.9250782e-05,7.791447e-05,9.496756e-06,-1.22374195e-05,-3.327086e-05,2.8641645e-05,-0.0001584392,7.6371405e-05,-1.1151386e-06,1.4799515e-05,6
7.3889546e-06,3.7354195e-05,4.46479e-05,0.000118030715,8.6923565e-06,-1.1566447e-05,-4.2337674e-06,6.4901986e-05,-0.00020157693,7.418936e-05,-6.1144357e-07,1.5141812e-05,6
1.3088099e-05,3.6187215e-05,2.870222e-05,8.6978886e-05,9.489277e-06,-1.05597765e-05,2.480332e-05,9.109137e-05,-0.00023497938,5.1529718e-05,-1.450544e-06,1.1791428e-05,6
1.6101654e-05,2.8809816e-05,5.8747232e-06,1.7825283e-05,9.006731e-06,-6.3639714e-06,4.5280092e-05,0.000104859915,-0.00022910512,6.210422e-06,-2.625342e-06,6.426856e-06,6
1.626177e-05,2.64679e-05,-2.3666742e-05,-4.330536e-06,3.8146459e-06,-2.8395625e-06,4.9643346e-05,0.000101507845,-0.00016800847,-4.5319295e-05,-2.1216454e-06,2.7407787e-06,6
1.4071996e-05,2.9329307e-05,-5.0858318e-05,3.612141e-05,-4.9522005e-06,-2.1685898e-06,4.3767785e-05,7.297839e-05,-8.5930646e-05,-7.8049896e-05,-7.787042e-07,-3.9665833e-06,6
1.0035879e-05,3.386921e-05,-6.562905e-05,7.925894e-05,-1.2801502e-05,-3.6796584e-06,3.7220827e-05,4.15955e-05,-3.557633e-05,-8.409247e-05,3.9638945e-07,-1.789146e-05,6
8.013951e-06,3.958406e-05,-6.7978945e-05,6.5831286e-05,-2.0540512e-05,-7.204919e-06,2.7652586e-05,3.539e-05,-4.8603792e-06,-7.77142e-05,2.2868966e-07,-3.1816333e-05,6
1.3713086e-05,5.016655e-05,-6.411841e-05,-3.99372e-06,-2.6096766e-05,-9.723085e-06,2.060208e-05,4.5801575e-05,5.0697257e-05,-7.67071e-05,-1.6175026e-06,-3.9195085e-05,6
2.7468985e-05,6.695945e-05,-5.7740137e-05,-9.278569e-05,-2.4043227e-05,-6.3665266e-06,2.7818756e-05,3.8588983e-05,0.00012354337,-7.73785e-05,-2.2887484e-06,-4.1874053e-05,6
3.954639e-05,7.9891826e-05,-4.9515525e-05,-0.00016546412,-1.6864744e-05,3.470161e-07,4.0910156e-05,1.5643305e-07,0.00016852652,-6.7978945e-05,-1.6172015e-06,-3.6160556e-05,6
4.138499e-05,7.6878525e-05,-4.380865e-05,-0.00021111887,-1.2320825e-05,6.0534626e-06,4.795898e-05,-6.563553e-05,0.00017255443,-5.6565194e-05,-1.7848993e-06,-2.809717e-05,6
3.2313386e-05,5.4059015e-05,-4.615854e-05,-0.00023612812,-1.1964795e-05,8.402925e-06,4.258696e-05,-0.00014888383,0.0001426768,-4.1458763e-05,-2.1204453e-06,-2.3055069e-05,6
1.703136e-05,3.308585e-05,-5.6565194e-05,-0.00024049194,-1.4692525e-05,7.731099e-06,2.27799e-05,-0.00020024076,0.0001094422,-1.4602883e-05,-1.952444e-06,-2.2041344e-05,6
-4.1253898e-06,3.1247502e-05,-6.596475e-05,-0.00022370672,-2.0867672e-05,5.7164793e-06,-4.4125245e-06,-0.0001609591,0.00011112023,1.0574502e-05,-2.1201402e-06,-1.9013427e-05,6
-2.4946441e-05,3.09198e-05,-6.529335e-05,-0.00019198294,-2.8932958e-05,3.5340115e-06,-2.7912267e-05,-5.940537e-05,0.00014888585,2.0645457e-05,-1.4485906e-06,-1.329992e-05,6
-3.838213e-05,2.371028e-05,-5.6733043e-05,-0.00015572725,-3.4329947e-05,-2.1732917e-06,-4.0166113e-05,2.8049024e-05,0.00017557343,1.6617074e-05,-1.7841347e-06,-9.097054e-06,6
-3.6039994e-05,1.0290338e-05,-5.0019073e-05,-0.0001238356,-3.4288227e-05,-5.698555e-06,-3.5467187e-05,5.877038e-05,0.0001549275,8.5603115e-06,-2.6232271e-06,-6.7405276e-06,6
-1.4227342e-05,-1.9546553e-06,-5.287251e-05,-8.808345e-05,-2.9789995e-05,-2.342e-06,-1.6836777e-05,6.0957365e-05,0.00012068581,8.392462e-07,-3.2944681e-06,-5.223244e-06,6
1.6649166e-05,1.0746346e-06,-5.7907986e-05,-4.2260337e-05,-2.6262862e-05,2.3573468e-06,6.1868815e-07,6.700489e-05,9.265453e-05,-7.3853666e-06,-2.4550657e-06,-3.873808e-06,6
5.188975e-05,1.9546056e-05,-3.8773174e-05,-2.6476444e-06,-2.4052519e-05,1.6855205e-06,4.646213e-06,6.6841996e-05,6.781238e-05,-1.2756542e-05,-1.7835135e-06,-3.1957663e-06,6
8.5451844e-05,3.096781e-05,5.8747232e-06,1.9173027e-05,-2.0906773e-05,-2.8468403e-06,2.8127363e-07,5.5768895e-05,4.8173566e-05,-5.5390246e-06,-2.4547528e-06,-1.1749281e-06,6
0.00010726449,1.2848102e-05,5.3543907e-05,2.957995e-05,-1.2820983e-05,-3.6865165e-06,3.469549e-06,3.647119e-05,3.0045392e-05,1.9917196e-20,-3.2938428e-06,1.1816104e-06,6
0.00012135607,-3.246318e-05,8.207828e-05,3.8644077e-05,-1.5737714e-06,2.859173e-06,1.7232325e-05,1.700564e-05,1.3092164e-05,-4.1962307e-06,-2.622289e-06,8.5256414e-07,6
0.0001226911,-8.448843e-05,8.5099564e-05,4.586186e-05,8.296274e-06,1.1922599e-05,3.6534122e-05,1.5332109e-05,2.0136592e-06,-1.5945678e-05,-2.6221308e-06,-1.4906718e-06,6
9.381327e-05,-0.000116539624,7.234302e-05,5.1065454e-05,1.3205741e-05,1.8132589e-05,5.2311083e-05,3.0107807e-05,-4.197217e-06,-2.9877165e-05,-9.434791e-07,-2.1554124e-06,6
3.9422364e-05,-0.000119720746,5.48867e-05,5.4758402e-05,1.5696874e-05,2.1153443e-05,5.499581e-05,3.2798358e-05,-4.869069e-06,-2.0309757e-05,9.0302115e-07,-2.1487538e-06,6
-5.3351863e-07,-0.000105445535,4.0787367e-05,5.710856e-05,1.8374918e-05,2.1992257e-05,4.861667e-05,-1.7736139e-06,-6.212317e-06,9.567407e-06,2.3178491e-07,-2.9813389e-06,6
-1.21228795e-05,-8.882044e-05,3.0380712e-05,5.8787315e-05,2.2102337e-05,2.2159673e-05,3.9384086e-05,-7.226533e-05,-1.8969313e-05,2.6688029e-05,-2.1179437e-06,-4.485318e-06,6
-1.968386e-05,-8.1259204e-05,2.4673838e-05,5.811618e-05,2.4913408e-05,2.1152144e-05,3.0487206e-05,-0.000116908246,-3.6593938e-05,1.6952774e-05,-2.117783e-06,-6.157145e-06,6
-3.53016e-05,-8.444031e-05,2.6688029e-05,5.3752367e-05,2.2584714e-05,1.8130422e-05,2.545086e-05,-8.635471e-05,-4.4147604e-05,-1.544213e-05,-2.712796e-07,-5.143382e-06,6
-5.662622e-05,-8.006821e-05,3.0045014e-05,4.7877904e-05,1.571394e-05,1.3094512e-05,2.612138e-05,-1.5013804e-05,-3.995183e-05,-5.5893797e-05,-2.711177e-07,-1.9475774e-06,6
-7.0733324e-05,-5.740053e-05,2.4673838e-05,3.965355e-05,9.29709e-06,9.569244e-06,2.8973944e-05,3.081402e-05,-2.9881327e-05,-9.097429e-05,-7.745043e-07,7.4468386e-07,6
-9.172224e-05,-2.650824e-05,6.378271e-06,2.8072216e-05,4.637005e-06,5.204728e-06,2.7462424e-05,1.7726761e-05,-1.8132332e-05,-0.00011027695,-1.1100403e-06,2.5977004e-06,6
-0.00013218168,-1.7436349e-05,-2.433814e-05,2.941527e-05,-2.4875413e-07,-3.523867e-06,1.2355111e-05,-1.6845195e-05,-7.726132e-06,-0.00011480888,-2.452669e-06,4.2828688e-06,6
-0.00014276395,-2.3303037e-05,-5.5893797e-05,7.305633e-05,-6.476199e-06,-1.1077518e-05,-1.2655306e-05,-1.3818922e-05,1.8408226e-06,-0.00011161975,-3.7952989e-06,6.4715878e-06,6
-0.000104669954,-1.037061e-05,-6.4621956e-05,0.00012995748,-1.0297448e-05,-1.3092146e-05,-3.14553e-05,-5.4214693e-06,8.386491e-06,-0.00010037384,-2.7880403e-06,7.988911e-06,6
-6.002983e-05,2.1025236e-05,-4.6997786e-05,0.0001469105,-8.825924e-06,-1.3092582e-05,-4.102359e-05,-3.948987e-05,1.0735929e-05,-7.536431e-05,6.556264e-08,7.995595e-06,6
-4.2245578e-05,4.7217756e-05,-1.6281376e-05,0.00012022274,-3.7782456e-06,-1.3764415e-05,-5.0591883e-05,-9.3028786e-05,1.19104225e-05,-2.9709316e-05,4.261959e-06,6.8273353e-06,6
-4.4267545e-05,5.8136e-05,2.1316853e-05,7.8428544e-05,-1.4082008e-06,-1.577904e-05,-5.8649533e-05,-0.00010913731,9.2243845e-06,2.2827497e-05,8.794054e-06,7.33757e-06,6
-4.477887e-05,6.2004576e-05,5.4215303e-05,3.9655624e-05,-1.6181323e-06,-1.8465067e-05,-6.049676e-05,-8.4122774e-05,-7.77458e-09,5.2536812e-05,1.09762605e-05,7.1764102e-06,6
-3.5890633e-05,5.9327034e-05,6.898604e-05,6.5895792e-06,-1.0791825e-06,-1.9304749e-05,-5.6301422e-05,-5.6758352e-05,-1.3436163e-05,5.4383152e-05,1.1815674e-05,5.8403093e-06,6
-2.0288433e-05,4.5403594e-05,7.066453e-05,-1.6741209e-05,1.2619784e-06,-2.0144435e-05,-4.7070604e-05,-5.205357e-05,-4.5327968e-05,5.958648e-05,1.1983691e-05,3.6649622e-06,6
-4.854081e-06,1.5366626e-05,6.697184e-05,-4.0911244e-05,6.439674e-06,-1.8130682e-05,-3.3979257e-05,-7.084768e-05,-0.00010827188,9.584192e-05,1.14803115e-05,2.328865e-06,6
6.0483403e-06,-3.0616015e-05,6.160067e-05,-7.5655786e-05,1.2020403e-05,-1.4774135e-05,-1.9041567e-05,-8.913824e-05,-0.00016853021,0.00013948271,1.0305535e-05,1.3284672e-06,6
1.2922378e-05,-6.350641e-05,5.8075835e-05,-8.9922716e-05,1.6854206e-05,-9.906947e-06,-6.2859217e-06,-8.560839e-05,-0.00018716193,0.00015828184,6.613022e-06,-3.433246e-07,6
2.0299964e-05,-6.148416e-05,5.4215303e-05,-6.4409374e-05,2.0045865e-05,-4.3683594e-06,2.9448913e-06,-6.210449e-05,-0.00016517412,0.00015257495,3.5919054e-06,-8.401693e-07,6
2.4824112e-05,-3.747367e-05,4.0955216e-05,-3.9063892e-05,2.1416816e-05,-5.0826554e-07,4.7903327e-06,-1.4094587e-05,-0.00012472291,0.00013545433,5.7078876e-07,1.012876e-06,6
2.2298591e-05,-1.0777583e-05,2.4673838e-05,-7.3808435e-05,2.0534191e-05,3.3053988e-07,1.2645987e-06,4.9693143e-05,-7.655062e-05,0.00011732662,-1.0043646e-07,2.5302265e-06,6
1.490544e-05,1.7932694e-05,2.1316853e-05,-0.00010368535,1.9891984e-05,1.62251e-07,-3.771779e-06,9.669594e-05,-2.7539088e-05,9.365987e-05,1.0746799e-06,2.7047838e-06,6
1.00300285e-05,4.462879e-05,2.7359425e-05,-4.1748728e-05,1.9389543e-05,6.653578e-07,-1.8207718e-05,0.00011902492,7.0374085e-06,6.0929273e-05,2.3560467e-07,2.3757955e-06,6
7.000957e-06,5.2357915e-05,2.3498893e-05,8.5481246e-05,1.8685236e-05,2.8469592e-06,-4.2546762e-05,0.00012624745,1.4422328e-05,2.450599e-05,-1.274867e-06,2.046809e-06,6
4.1397343e-06,4.9176837e-05,8.89601e-06,0.00018602317,1.587367e-05,3.3500655e-06,-6.78929e-05,0.00011886712,2.0010382e-06,-1.0238804e-05,-2.785337e-06,2.0718247e-07,6
-6.428443e-08,6.009511e-05,2.1820401e-06,0.00021220792,1.1147125e-05,1.1675843e-06,-7.5279175e-05,8.698079e-05,-1.3609387e-05,-4.8172733e-05,-7.7097275e-07,-9.61046e-07,6
1.438571e-06,7.302757e-05,1.3763638e-05,0.00020348001,8.454214e-06,1.6004687e-07,-6.084505e-05,4.3512868e-05,-1.6295422e-05,-8.392462e-05,-9.940082e-08,-6.1862846e-07,6
3.8189766e-05,6.9007256e-05,4.0955216e-05,0.00019676628,1.1845824e-05,2.173795e-06,-3.617212e-05,2.1865351e-05,4.6852883e-06,-9.785611e-05,-3.1205134e-06,5.9489075e-08,6
0.00011707112,6.867963e-05,7.67071e-05,0.00012274501,1.7678145e-05,6.873133e-06,-5.456623e-06,2.2541783e-05,3.808684e-05,-8.8288696e-05,-5.1345296e-06,1.2411556e-06,6
0.00019494537,6.952694e-05,9.91989e-05,-4.1243453e-05,1.7531685e-05,8.719032e-06,2.0055544e-05,3.798895e-05,5.5710567e-05,-6.9657435e-05,-3.120163e-06,3.094222e-06,6
0.00023387861,3.0593998e-05,9.248493e-05,-0.00016662659,1.2339207e-05,6.368701e-06,3.5496763e-05,8.5663174e-05,5.470303e-05,-5.2536812e-05,-7.70098e-07,3.6044955e-06,6
0.00022447125,-4.2748045e-05,6.764325e-05,-0.00015000926,8.4402045e-06,4.521916e-06,3.9524224e-05,0.00013266601,4.2953136e-05,-4.5319295e-05,6.9325495e-08,5.793265e-06,6
0.00018115835,-8.419873e-05,4.5487144e-05,-4.3592612e-05,7.1371846e-06,4.6893215e-06,3.650202e-05,0.00014307769,1.928595e-05,-4.448005e-05,-2.6619549e-07,1.1842567e-05,6
0.00013297785,-4.994941e-05,3.4409095e-05,7.4573494e-05,6.279621e-06,2.674687e-06,2.9451434e-05,0.00011605902,-7.738221e-06,-3.508049e-05,-2.6601796e-07,1.654908e-05,6
9.3189774e-05,1.1323644e-05,2.635233e-05,0.00016034469,3.577218e-06,3.2435312e-07,2.0050955e-05,7.4605305e-05,-3.5769488e-05,-5.5390246e-06,-1.2729369e-06,1.7898607e-05,6
5.5248052e-05,3.5669866e-05,7.049668e-06,0.00017192653,-1.5868924e-06,-1.1867351e-06,1.38396135e-05,4.0704803e-05,-4.9869268e-05,4.1458763e-05,-3.1190993e-06,1.8241042e-05,6
2.4355999e-05,4.1216976e-05,-2.1484702e-05,0.00012828597,-6.8294203e-06,-2.8656716e-06,1.0146006e-05,-4.6094374e-06,-3.157414e-05,7.3350115e-05,-3.7903162e-06,1.9254874e-05,6
2.2334012e-05,7.697694e-05,-4.1123065e-05,7.0881775e-05,-6.8170034e-06,4.9086856e-07,5.7767346e-07,-6.3855165e-05,8.877082e-06,6.932174e-05,-2.4473427e-06,1.9261613e-05,6
4.7000056e-05,0.00012985754,-4.867628e-05,7.0993024e-06,-8.3059625e-08,6.7008464e-06,-2.20829e-05,-0.00010329468,4.446068e-05,4.7165635e-05,-4.3297152e-07,1.7589862e-05,6
3.776055e-05,0.00015051107,-6.0257877e-05,-7.749647e-05,4.239003e-06,1.1400179e-05,-5.5485827e-05,-0.00012057809,6.678419e-05,5.52224e-05,-1.1041899e-06,1.3232528e-05,6
-4.0464995e-05,0.00011224955,-7.6371405e-05,-0.00017317031,5.8184656e-07,1.5092416e-05,-7.529296e-05,-0.00014037924,8.306512e-05,9.416342e-05,-2.7825008e-06,8.87519e-06,6
-0.00015528167,3.1690004e-05,-8.778515e-05,-0.00026213017,-6.9802963e-06,2.0127449e-05,-7.193691e-05,-0.00014943804,9.4646275e-05,9.684901e-05,-2.7823191e-06,4.6857076e-06,6
-0.00029863272,-5.3905016e-05,-8.92958e-05,-0.00036586076,-1.220907e-05,2.2644741e-05,-5.347443e-05,-0.0001546363,9.3303046e-05,2.9373618e-05,-1.4393429e-06,4.962258e-07,6
-0.0004240239,-0.00010844793,-7.872129e-05,-0.000479998,-1.3845878e-05,1.9287309e-05,-2.3933899e-05,-0.00018266206,8.507799e-05,-7.3350115e-05,-1.1034622e-06,-2.5183094e-06,6
-0.00042688515,-0.00010843983,-5.992218e-05,-0.0005081964,-1.2537034e-05,1.5762027e-05,1.8531024e-05,-0.00020162395,7.853143e-05,-0.00015391775,-1.774675e-06,-6.2042404e-06,6
-0.00029211,-6.0594703e-05,-4.448005e-05,-0.00035830683,-8.841602e-06,1.374739e-05,6.2842286e-05,-0.00018114128,7.81953e-05,-0.00019118028,-1.7744912e-06,-1.0729415e-05,6
-0.00011738674,-8.385493e-06,-4.0115967e-05,-6.6081084e-05,-6.2958566e-06,1.3579093e-05,9.775398e-05,-0.0001344741,6.375982e-05,-0.00019353017,9.1128e-07,-1.5254588e-05,6
6.8138934e-06,1.4617952e-05,-4.7165635e-05,0.000210199,-6.0035227e-06,1.2907248e-05,0.00012981225,-9.9220706e-05,1.2565361e-05,-0.00017238117,2.5899578e-06,-1.3401489e-05,6
5.2125382e-05,1.915798e-05,-5.539025e-05,0.00028673848,-2.6729518e-07,1.2067554e-05,0.00016170266,-9.1830254e-05,-6.481358e-05,-0.00013730068,3.093691e-06,-1.4774333e-06,6
3.8353945e-05,2.201952e-05,-5.7572288e-05,8.1962644e-05,8.293919e-06,1.0052915e-05,0.00018520061,-8.67897e-05,-0.00012255415,-7.888914e-05,5.443766e-06,1.3971458e-05,6
5.7833904e-06,1.2460217e-05,-5.8915084e-05,-0.00017031452,9.603956e-06,6.0240836e-06,0.00018687817,-1.880568e-05,-0.000123226,-5.2033265e-06,8.12954e-06,2.1027892e-05,6
-1.8226854e-05,-2.932614e-05,-6.865034e-05,-0.00018223161,4.4425306e-06,-1.8678652e-07,0.00016572823,9.819032e-05,-8.378185e-05,4.850843e-05,7.7940285e-06,1.7845521e-05,6
-3.6194524e-05,-9.813622e-05,-8.224613e-05,6.8535395e-05,-1.1234191e-06,-6.061961e-06,0.000134843,0.00018279142,-4.181998e-05,7.284657e-05,5.9478743e-06,6.270689e-06,6
-5.6008543e-05,-0.00016694631,-8.543526e-05,0.00031124562,-2.1376168e-06,-1.462272e-05,8.985846e-05,0.00019152467,-1.5971636e-05,9.6513315e-05,4.10172e-06,-2.4507035e-06,6
-7.397622e-05,-0.00019966881,-7.368581e-05,0.0003179598,-2.4388016e-06,-2.553337e-05,2.1375025e-05,0.00015326013,-2.2350343e-05,0.00013109026,9.127724e-07,-3.45103e-06,6
-8.103369e-05,-0.0001850578,-6.51255e-05,0.00019274451,-2.6490866e-06,-3.3926284e-05,-6.0368504e-05,0.00011700978,-7.270555e-05,0.00015526054,-1.4369277e-06,-2.5512173e-07,6
-6.711001e-05,-0.00014241599,-7.066453e-05,0.00014272566,-7.8116074e-07,-3.9969305e-05,-0.00013170538,8.243793e-05,-0.00012927117,0.00016667429,-4.122325e-06,3.947882e-06,6
-2.7337544e-05,-0.00011085222,-6.865034e-05,0.00020936204,4.936364e-06,-4.2319643e-05,-0.00016964028,3.0241914e-05,-0.00014555299,0.00016835278,-7.64697e-06,8.486587e-06,6
2.2170174e-05,-9.9094665e-05,-4.632639e-05,0.00024544986,7.919291e-06,-4.2655793e-05,-0.00017635518,6.9159682e-06,-0.00010812305,0.00015761044,-1.0668065e-05,1.3193144e-05,6
4.6836205e-05,-9.136548e-05,-1.8295566e-05,0.00020097003,1.9165727e-06,-4.5509685e-05,-0.00016913863,2.6391575e-05,-4.6187113e-05,0.00013075456,-1.3689161e-05,1.9074643e-05,6
2.886853e-05,-8.3636296e-05,8.056763e-06,0.00015145473,-7.837185e-06,-5.0209917e-05,-0.00015000478,1.8004215e-05,-8.682509e-07,9.617762e-05,-1.620671e-05,2.41169e-05,6
-1.4780081e-05,-6.919315e-05,3.6758982e-05,0.00014776227,-1.3896365e-05,-5.33995e-05,-0.00011358245,1.1631046e-05,1.33984995e-05,6.227207e-05,-1.6877913e-05,2.6137874e-05,6
-4.970053e-05,-4.367195e-05,6.428626e-05,0.00017025428,-1.4696461e-05,-5.205716e-05,-7.044616e-05,2.6406882e-05,1.984318e-06,3.30663e-05,-1.8556213e-05,2.4801864e-05,6
-5.1554678e-05,-2.2514825e-05,7.956054e-05,0.00014709131,-1.2218005e-05,-4.2658052e-05,-4.2752e-05,-4.7441674e-05,-3.5782195e-05,1.326009e-05,-1.9059567e-05,2.682284e-05,6
-2.0342532e-05,-1.3442847e-05,7.3350115e-05,5.8802834e-05,-7.841294e-06,-2.6712827e-05,-3.956383e-05,-0.00022569246,-0.00010913274,-3.524834e-06,-1.6205939e-05,3.1529402e-05,6
3.9878e-06,-6.04936e-06,5.320821e-05,-3.351403e-05,-2.4503208e-06,-1.0264058e-05,-4.4432425e-05,-0.00032052217,-0.0001698946,-1.7288472e-05,-1.3855854e-05,3.4389628e-05,6
9.183316e-06,7.8902485e-06,3.27306e-05,-9.679297e-05,-1.4851772e-06,3.0999064e-07,-4.3258446e-05,-0.00020587603,-0.0001568028,-1.779202e-05,-1.2848565e-05,3.355717e-05,6
3.7877726e-05,3.2236512e-05,1.762417e-05,-0.0001773604,-4.97436e-06,6.855658e-06,-3.53705e-05,1.6361475e-05,-7.338216e-05,-2.232395e-05,-1.0162782e-05,2.9199884e-05,6
0.000109709385,7.017856e-05,1.1749447e-05,-0.000281091,-1.136176e-05,1.1051435e-05,-2.9832447e-05,0.00016894155,3.622297e-05,-5.2033265e-05,-5.7985053e-06,2.400335e-05,6
0.00014729981,0.00010006386,7.217517e-06,-0.00033782382,-1.9275934e-05,9.708187e-06,-2.7315678e-05,0.00018992783,0.00013861057,-0.00010154879,-2.2734753e-06,2.1828106e-05,6
6.605296e-05,8.8658235e-05,-8.3924615e-06,-0.00036149035,-2.5612539e-05,5.6793497e-06,-2.0602683e-05,0.00011238659,0.00020339995,-0.00013713283,-2.2732788e-06,2.1331354e-05,6
-6.789854e-05,7.188144e-05,-2.3498893e-05,-0.00032103845,-2.6989406e-05,6.8538407e-06,-6.8400195e-06,1.9403233e-05,0.00020339951,-0.00014703593,-2.4409308e-06,1.9491807e-05,6
-0.00010718307,7.558225e-05,-2.2156099e-05,-0.0001661134,-2.1615258e-05,1.8770681e-05,2.270047e-05,-1.3322248e-05,0.0001792288,-0.00014753948,5.805517e-07,1.6141621e-05,6
-4.1561827e-05,6.249813e-05,-7.5532157e-06,4.58804e-05,-1.2523542e-05,3.555515e-05,5.828353e-05,3.468776e-05,0.0001705002,-0.00014586099,4.776981e-06,1.010585e-05,6
4.95725e-05,1.7522672e-05,2.3498894e-06,0.00018888817,-3.5030291e-06,4.8479083e-05,7.2885436e-05,0.00011039289,0.00017066763,-0.00013360799,7.630616e-06,2.223737e-06,6
0.00012006136,-2.4431507e-05,-3.3569847e-06,0.00019778438,3.5761548e-06,5.301056e-05,7.4395095e-05,0.00015907429,0.00016042839,-0.000109102,8.9736095e-06,-4.6512782e-06,6
0.0001536234,-2.9458852e-05,-1.560998e-05,0.00012124535,5.9267436e-06,4.914957e-05,8.9164845e-05,0.00019399208,0.0001318936,-9.6513315e-05,8.6381115e-06,-9.344252e-06,6
0.00014522312,-5.9518247e-06,-2.433814e-05,3.9670827e-05,3.879947e-06,4.2602995e-05,0.00011736254,0.00023444886,9.5973424e-05,-0.00011027695,9.309707e-06,-1.6051416e-05,6
0.000103253005,2.4437022e-05,-2.7527276e-05,-1.7062e-05,2.0755385e-06,3.790276e-05,0.00013414648,0.0002655061,7.918808e-05,-0.00013411154,1.0317003e-05,-2.5444166e-05,6
4.5169356e-05,5.6840057e-05,-2.5345234e-05,-5.466002e-05,2.719852e-06,3.219543e-05,0.00013196346,0.00026215424,8.3887426e-05,-0.00012454414,8.806562e-06,-2.7955097e-05,6
-4.9344806e-07,7.329742e-05,-3.0548563e-05,-8.8229666e-05,3.2165228e-06,2.346681e-05,0.000120380864,0.00022926094,8.959387e-05,-4.196231e-05,6.792573e-06,-2.0059371e-05,6
-1.2250706e-05,6.6423745e-05,-5.1194016e-05,-0.0001194494,1.2367327e-06,1.5913136e-05,0.000107959044,0.0001829397,7.247282e-05,6.932174e-05,5.617829e-06,-1.1660097e-05,6
2.3493369e-05,6.122855e-05,-6.596475e-05,-0.00012683458,-4.842284e-07,1.1548598e-05,9.9901285e-05,9.8013115e-05,2.0774833e-05,0.00012404058,4.9466344e-06,-1.1988982e-05,6
6.0915936e-05,7.399324e-05,-5.7740137e-05,-0.00010568536,-1.1338461e-06,8.862553e-06,9.234707e-05,-6.177422e-05,-4.5022498e-05,0.00011329824,3.4361956e-06,-1.567485e-05,6
6.5249696e-06,7.836545e-05,-4.0787367e-05,-9.8803335e-05,-4.4803764e-06,3.6587683e-06,6.431526e-05,-0.00023381454,-7.842491e-05,7.721065e-05,9.186591e-07,-1.9360717e-05,6
-0.000116516334,5.302836e-05,-2.8870068e-05,-0.0001164273,-9.386252e-06,-4.3984533e-06,1.0602509e-05,-0.00028953535,-5.828344e-05,4.783703e-05,-2.43812e-06,-2.3046583e-05,6
-0.0002033022,3.18875e-05,-1.762417e-05,-0.00014277942,-1.4549645e-05,-1.3462773e-05,-4.579583e-05,-0.0002584781,8.520136e-06,3.1891355e-05,-5.2913533e-06,-2.5221805e-05,6
-0.00019961734,4.9855505e-05,-5.8747232e-06,-0.00015436082,-1.9939505e-05,-2.1519994e-05,-8.020592e-05,-0.00027928624,8.1701975e-05,4.1290914e-05,-7.3053384e-06,-2.5718533e-05,6
-0.00013366039,7.705523e-05,2.5177385e-06,-0.00012716903,-2.3648583e-05,-2.7227328e-05,-0.00010806989,-0.00035112057,0.00011879624,8.8288696e-05,-6.4658875e-06,-2.8229451e-05,6
-4.1854677e-05,6.2964034e-05,1.2924392e-05,-6.405751e-05,-2.0588219e-05,-2.9241977e-05,-0.00014801901,-0.00038502095,0.0001109069,0.00014183261,-3.2765456e-06,-3.7454334e-05,6
5.4147276e-05,1.5806545e-05,2.8030823e-05,1.2146243e-05,-1.0388775e-05,-3.1760177e-05,-0.00019031802,-0.00037343422,7.549029e-05,0.00016633859,-1.7656961e-06,-5.658232e-05,6
9.2409085e-05,-2.0272895e-05,3.9948118e-05,7.055798e-05,-2.8227134e-06,-3.6292564e-05,-0.00021717491,-0.00035932972,3.3191853e-05,0.00015257495,-5.90544e-07,-7.403182e-05,6
5.8831425e-05,-2.5300225e-05,4.599069e-05,7.441871e-05,-1.4602977e-06,-3.998571e-05,-0.00021197258,-0.00034589664,-4.2718593e-08,0.0001087663,-3.1080754e-06,-7.536779e-05,6
1.585421e-05,-1.5892521e-05,5.0019073e-05,3.4974342e-05,-3.1806771e-06,-4.3846707e-05,-0.00017454321,-0.0003227283,-2.8241813e-05,5.2536812e-05,-6.1291544e-06,-6.210087e-05,6
1.081092e-05,-9.338252e-06,5.740444e-05,3.547809e-05,-3.4805996e-06,-4.317577e-05,-0.00012032891,-0.00025709404,-6.8190355e-05,1.1749447e-06,-5.9610948e-06,-3.372752e-05,6
3.3630604e-05,-1.7768878e-06,6.378271e-05,0.00012410269,-1.8114351e-06,-3.4615918e-05,-6.829665e-05,-0.0001238166,-0.00011233513,-3.3569846e-05,-4.9537916e-06,-2.1650312e-06,6
4.7722126e-05,1.36733925e-05,6.54612e-05,0.00025015767,3.1989698e-06,-2.118844e-05,-2.8013847e-05,2.02032e-05,-0.00014976594,-4.7165635e-05,-2.4358421e-06,1.8822955e-05,6
3.1936484e-05,3.2984204e-05,6.999313e-05,0.00032753634,8.94749e-06,-9.943003e-06,-5.5230576e-06,0.00010430083,-0.00017578299,-4.649424e-05,1.4248998e-06,2.7725797e-05,6
-1.03693355e-05,4.927373e-05,7.855344e-05,0.00032367604,1.3277376e-05,-4.06874e-06,1.0220489e-06,0.00013049049,-0.00018451156,-4.448005e-05,2.6000544e-06,2.2697155e-05,6
-6.0731923e-05,6.203842e-05,7.4525065e-05,0.0002451228,1.34484235e-05,-4.237052e-06,2.5316801e-06,0.000118410506,-0.00017662307,-4.5654993e-05,1.4253214e-06,1.2192868e-06,6
-8.574926e-05,7.748871e-05,5.539025e-05,8.751254e-05,8.608505e-06,-6.4195556e-06,9.916031e-06,7.96425e-05,-0.00014691417,-5.6565194e-05,1.593382e-06,-2.3447714e-05,6
-3.8759295e-05,9.629598e-05,5.6061646e-05,-9.0575304e-05,3.5296973e-06,-8.266358e-06,1.8978872e-05,4.4063632e-05,-0.000106295076,-6.4621956e-05,2.600689e-06,-3.636527e-05,6
6.6138666e-05,0.00010083606,8.442817e-05,-0.00011340262,4.902172e-06,-8.098972e-06,2.0992045e-05,5.1118477e-05,-7.5075535e-05,-4.1290914e-05,1.9295046e-06,-3.887617e-05,6
0.0001403202,5.804266e-05,0.00011346609,4.605436e-05,1.329513e-05,-4.071054e-06,2.0991027e-05,7.2272655e-05,-5.4430497e-05,1.1749447e-06,-4.201704e-07,-4.3569107e-05,6
0.000121848985,-4.2658732e-05,0.00012806898,0.00022733172,2.3501483e-05,1.6353557e-06,3.0389561e-05,8.4698666e-05,-4.7884794e-05,2.8030823e-05,-2.0984498e-06,-5.4808163e-05,6
4.933031e-05,-0.00013362487,0.00012605477,0.00032955213,3.1768057e-05,9.691656e-06,4.515927e-05,0.00011911294,-6.1481005e-05,2.5513084e-05,-1.9303868e-06,-6.185099e-05,6
-1.7036722e-06,-0.0001346238,0.00010054169,0.00034516226,3.5433502e-05,1.6069462e-05,5.7243396e-05,0.00016007334,-7.826634e-05,5.2033265e-06,-4.1952833e-07,-6.083705e-05,6
-1.9167806e-05,-6.747595e-05,4.7165635e-05,0.0002995075,2.9719975e-05,1.5061903e-05,6.748117e-05,0.00017988472,-6.9706446e-05,-9.567407e-06,-8.361532e-08,-5.562688e-05,6
-2.5553885e-05,-1.9966457e-05,-2.2659648e-05,0.00024176751,1.6494176e-05,1.3550796e-05,7.889389e-05,0.00019835333,-3.596917e-05,5.035477e-07,2.5229818e-07,-4.7898968e-05,6
-2.1701164e-05,-1.2740783e-05,-8.073548e-05,0.00018704886,5.3736258e-06,1.5564521e-05,8.812457e-05,0.00021766117,1.0692501e-05,1.9974059e-05,5.882122e-07,-3.6478374e-05,6
-1.7177046e-05,-2.716766e-05,-9.88632e-05,5.4448155e-05,6.0669954e-06,1.9088891e-05,8.980204e-05,0.00022035194,4.694752e-05,2.6016633e-05,9.241267e-07,-2.455423e-05,6
-2.7255812e-05,-6.005795e-05,-8.241398e-05,-0.00021058561,1.564466e-05,1.8249179e-05,8.342275e-05,0.00019803319,3.9897437e-05,2.2995346e-05,1.4278927e-06,-1.2294387e-05,6
-4.8244776e-05,-0.00010771897,-4.7333484e-05,-0.00051355327,2.2320497e-05,1.7409468e-05,7.28472e-05,0.00014785145,-3.0723838e-06,2.5680933e-05,2.0995062e-06,1.1379206e-05,6
-5.61415e-05,-0.00014027357,-3.524834e-06,-0.00075643096,2.051417e-05,1.8416096e-05,5.9250382e-05,8.491317e-05,-7.155529e-05,4.5822842e-05,3.6103681e-06,5.2005573e-05,6
-5.0778133e-05,-0.0001300266,3.27306e-05,-0.0008752681,1.2606387e-05,1.7072836e-05,4.011454e-05,3.0703057e-05,-0.00014322733,5.8579386e-05,3.946285e-06,9.7163866e-05,6
-2.0069534e-05,-9.4937954e-05,4.39765e-05,-0.0008114851,7.890425e-06,1.7743767e-05,1.9132345e-05,-6.2185845e-06,-0.00016588738,4.2801556e-05,2.6037096e-06,0.00012889421,6
3.0445279e-05,-6.773821e-05,1.5945678e-05,-0.0005417512,1.1118574e-05,2.1771682e-05,2.5142358e-06,-3.978324e-05,-0.00012828957,3.8101778e-05,2.939628e-06,0.00013259378,6
5.057938e-05,-5.883404e-05,-4.4983597e-05,-0.00015653703,9.904187e-06,2.1099819e-05,-1.4103878e-05,-8.744723e-05,-5.628266e-05,6.428626e-05,4.282642e-06,0.00011497645,6
3.529729e-05,-6.0336522e-05,-0.00011430533,0.00017681174,-8.251008e-07,1.4721081e-05,-2.702931e-05,-0.0001262152,3.7880345e-05,7.872129e-05,4.1150124e-06,8.9973764e-05,6
3.8478618e-05,-4.7236117e-05,-0.0001653315,0.0003230086,-1.0876613e-05,1.0188684e-05,-2.7030352e-05,-0.00012184594,0.00012918992,9.382772e-05,4.2830834e-06,6.899947e-05,6
6.6501634e-05,1.0847882e-05,-0.0001868162,0.00024109836,-1.058273e-05,6.663383e-06,-2.1995917e-05,-8.743163e-05,0.0001758516,0.00012152285,3.947606e-06,5.205356e-05,6
7.018651e-05,0.00010015184,-0.00019101243,7.0731556e-05,-6.8541476e-06,5.6558183e-06,-1.528299e-05,-5.7381418e-05,0.00017786537,0.00011665522,2.2693346e-06,3.3093456e-05,6
3.0398433e-05,0.0001454793,-0.00018463416,-4.6325713e-06,-7.031521e-06,1.0187281e-05,-4.8773827e-06,-4.0759143e-05,0.000171151,5.1529718e-05,2.940955e-06,9.097875e-06,6
-2.6678117e-05,9.966462e-05,-0.000154757,-1.3024855e-05,-5.881462e-06,1.6229385e-05,5.528222e-06,-2.1954824e-05,0.00015503707,-5.2201114e-05,4.955368e-06,-6.0016955e-06,6
-7.1669514e-05,1.2055483e-05,-9.95346e-05,-2.681327e-07,-3.6577956e-06,1.8746656e-05,9.555559e-06,9.10249e-06,0.00010535327,-0.00014821088,6.1305363e-06,-1.1272059e-06,6
-9.9372446e-05,-4.7522833e-05,-3.4409095e-05,7.6271295e-05,-2.8528636e-06,1.773909e-05,1.03937555e-05,4.6202378e-05,6.087281e-05,-0.00021484702,4.620117e-06,1.6335978e-05,6
-9.635897e-05,-6.362819e-05,1.8799115e-05,0.0002369032,-6.3742727e-06,1.28709935e-05,1.4588935e-05,9.874439e-05,4.543027e-05,-0.00024539558,3.2775486e-06,2.6413798e-05,6
-2.0666765e-05,-4.81779e-05,4.2801556e-05,0.00039954926,-8.528752e-06,1.1024184e-05,2.7680126e-05,0.00016169308,4.9290393e-05,-0.00024271,4.4527173e-06,1.7692502e-05,6
0.000118304604,-4.8646275e-06,5.052262e-05,0.00046266077,-4.3758314e-06,1.5723492e-05,4.5806784e-05,0.00019510026,6.573921e-05,-0.00021635767,4.285094e-06,4.1089592e-07,6
0.00022353829,5.0365936e-05,5.8915084e-05,0.0004055922,1.1930365e-06,1.9751404e-05,5.6883786e-05,0.00017412433,7.060643e-05,-0.0001755703,1.9354295e-06,-6.296207e-06,6
0.00022235552,7.9747726e-05,7.603571e-05,0.0002944762,2.0325772e-06,1.9079538e-05,5.5204237e-05,0.000104472114,5.6674533e-05,-0.00012773328,-4.1423218e-07,4.2463023e-07,6
0.00015084395,7.925234e-05,9.903105e-05,0.00020954464,-1.8175761e-07,1.5218535e-05,4.378943e-05,2.3406146e-05,2.8811153e-05,-9.013504e-05,-4.140054e-07,4.9634286e-06,6
9.0746114e-05,8.043546e-05,0.00013276875,0.00018134614,-2.8253519e-06,1.2364627e-05,3.6067308e-05,-1.4186866e-05,-1.0801675e-05,-8.039978e-05,-4.137781e-07,-1.240125e-06,6
7.09321e-05,8.7828994e-05,0.00016751354,0.00017295386,-5.3704853e-06,1.2699855e-05,3.119862e-05,-5.621338e-06,-4.01757e-05,-8.946365e-05,-1.7563453e-06,-1.2311304e-05,6
6.672807e-05,9.052274e-05,0.00018698405,0.00014072697,-8.566049e-06,1.2531535e-05,1.52518805e-05,1.4022242e-05,-5.041491e-05,-9.91989e-05,-1.7561172e-06,-1.1633036e-05,6
5.715286e-05,9.7244876e-05,0.00019470512,6.1838e-05,-1.1217458e-05,9.006229e-06,-8.583774e-06,2.3259168e-05,-5.0918865e-05,-9.718471e-05,-1.0844924e-06,-2.7301544e-06,6
3.801025e-05,0.00010329563,0.00018950179,-4.0214167e-05,-1.3777728e-05,5.313075e-06,-1.6473752e-05,2.4103638e-05,-2.1209955e-05,-8.879225e-05,-7.716617e-08,-4.737473e-06,6
9.468079e-06,8.836522e-05,0.00014435034,-0.00010416455,-1.6944698e-05,5.144754e-06,-3.6128907e-07,5.432172e-05,3.5522684e-05,-7.3182266e-05,-7.693647e-08,-1.4969403e-05,6
-2.6291606e-05,6.353169e-05,5.4215303e-05,-0.00012581695,-1.676678e-05,7.662021e-06,2.464718e-05,0.00013623737,8.755554e-05,-4.39765e-05,-7.481043e-07,-2.0837253e-05,6
-7.447214e-05,4.35658e-05,-3.121996e-05,-0.00011071034,-1.2272868e-05,9.004342e-06,3.639556e-05,0.00019029005,9.997599e-05,-1.2252995e-05,-2.0906666e-06,-1.562705e-05,6
-0.00010872118,2.0410771e-05,-5.6733043e-05,-4.3738328e-05,-8.372244e-06,4.975489e-06,2.5316442e-05,0.00012785535,6.472723e-05,2.1820401e-06,-5.4474203e-06,-5.5492205e-06,6
-8.7747816e-05,-1.3150906e-05,-3.8437476e-05,7.6609744e-05,-6.2092545e-06,-2.2830926e-07,7.5233506e-06,2.3093587e-06,-7.784038e-06,8.392462e-07,-8.132778e-06,8.359276e-07,6
-1.8098184e-05,-4.6880436e-05,-2.232395e-05,0.00019343298,-8.540484e-07,-1.2358789e-06,2.990351e-06,-3.9312024e-05,-9.137336e-05,4.3640803e-06,-6.4540527e-06,2.8569948e-06,6
5.1383602e-05,-6.936406e-05,-2.1484702e-05,0.00023908814,6.5702625e-06,-7.328029e-07,7.8569055e-06,3.253268e-05,-0.00014172854,3.0045014e-05,-3.0968351e-06,1.1853809e-06,6
9.5688e-05,-6.784525e-05,-1.5106431e-05,0.00021676435,7.202142e-06,-1.908221e-06,9.534325e-06,0.000103034596,-0.00013770055,5.3543907e-05,-2.760904e-06,1.8516467e-07,6
0.00011414363,-6.196236e-05,1.7959868e-05,0.00017161306,3.858436e-06,-4.0907335e-06,1.2218834e-05,7.3498355e-05,-0.00010278832,5.1194016e-05,-4.2713127e-06,-1.4365487e-07,6
0.00010339349,-7.554998e-05,4.7333484e-05,0.00012730104,3.5420044e-06,-5.098304e-06,1.826033e-05,-3.7612608e-05,-5.461599e-05,3.541619e-05,-5.7817215e-06,-2.1509659e-06,6
7.8544006e-05,-0.00010105489,2.0309757e-05,6.553267e-05,5.850147e-06,-4.4273797e-06,2.3126879e-05,-0.000130428,7.152128e-06,2.635233e-05,-7.795678e-06,-4.6618234e-06,6
6.443688e-05,-0.00011212476,-4.599069e-05,-6.941795e-05,5.2147734e-06,-2.581512e-06,3.0679013e-05,-0.00012773718,5.331027e-05,2.2491799e-05,-8.63469e-06,-4.9906403e-06,6
6.9464564e-05,-9.180685e-05,-8.090333e-05,-0.00034200493,8.40971e-07,-1.4070432e-06,3.8063303e-05,-5.6228164e-05,6.3045125e-05,1.5945678e-05,-8.8023035e-06,-5.6551553e-06,6
8.2213315e-05,-6.29286e-05,-7.217517e-05,-0.00060435315,-2.2968333e-08,9.423733e-07,3.1851796e-05,1.6791491e-05,3.8538732e-05,1.2924392e-05,-6.7878764e-06,-8.166011e-06,6
9.512991e-05,-3.8582293e-05,-4.5319295e-05,-0.0006708213,5.8933615e-06,6.9844705e-06,2.0772666e-05,6.765505e-05,6.044055e-07,1.8966964e-05,-2.59141e-06,-9.66977e-06,6
9.0925896e-05,-1.8432214e-05,-2.2491799e-05,-0.0005494661,1.391569e-05,1.3530117e-05,1.5568254e-05,0.000102740785,-3.967981e-05,2.4673838e-05,-2.4128212e-07,-9.8307355e-06,6
3.015668e-05,-1.4563512e-05,-1.7120623e-05,-0.00031716263,1.9122668e-05,1.587953e-05,1.1035239e-05,0.00012926619,-8.264961e-05,1.9974059e-05,7.6604925e-07,-5.4597704e-06,6
-9.120611e-05,-3.738284e-05,-2.0645457e-05,-8.2173545e-05,1.9485778e-05,1.5711206e-05,-8.831418e-07,0.00015545593,-0.000101784826,7.217517e-06,1.6055342e-06,-1.4245034e-06,6
-0.0002142474,-6.842678e-05,-2.198825e-05,-3.6182693e-05,1.7931847e-05,1.822847e-05,-1.4312171e-05,0.00017711372,-7.660784e-05,-7.049668e-06,3.1164154e-06,-2.0890143e-06,6
-0.00025403543,-7.060065e-05,-2.5513084e-05,-0.0002486797,1.7961855e-05,2.2088525e-05,-1.1963371e-05,0.0001588234,-3.179249e-05,-2.0645457e-05,5.4665434e-06,-6.781906e-06,6
-0.00019328181,-3.450489e-05,-6.881819e-06,-0.00046520503,2.1990329e-05,2.6787828e-05,-5.92189e-06,8.933906e-05,-1.148313e-05,-1.3092241e-05,1.1005807e-05,-1.2314044e-05,6
-8.737672e-05,1.8543637e-05,6.562905e-05,-0.0003527459,2.6322272e-05,3.0312185e-05,-1.1965554e-05,4.7717695e-05,-6.9515986e-06,1.3595788e-05,1.6209375e-05,-1.5160593e-05,6
-1.08452505e-05,6.622099e-05,0.000163653,3.297181e-05,2.6532143e-05,2.8465367e-05,-2.6401682e-05,6.9879046e-05,-4.0587437e-07,3.5751887e-05,1.704886e-05,-1.5321553e-05,6
2.0713564e-06,9.593848e-05,0.0002307927,0.00042557134,2.3315459e-05,2.1079524e-05,-4.35234e-05,8.633352e-05,-3.4275565e-06,3.6423284e-05,1.6042006e-05,-1.4811118e-05,6
-2.1603168e-05,8.000097e-05,0.00023884946,0.0006895983,2.062367e-05,1.2854434e-05,-5.7623834e-05,5.293677e-05,-2.4409108e-05,3.289845e-05,1.4028056e-05,-1.3964982e-05,6
-3.654953e-05,1.0183853e-05,0.00020527962,0.00077083753,1.8475695e-05,5.9721383e-06,-6.635309e-05,-7.1480054e-06,-4.908334e-05,5.0858318e-05,1.2349806e-05,-1.37902425e-05,6
-2.4975714e-05,-5.4262087e-05,0.0001643244,0.0006768421,1.2558416e-05,-2.924349e-06,-7.407525e-05,-8.687114e-05,-5.5965553e-05,8.778515e-05,1.0671555e-05,-1.42869e-05,6
6.907862e-06,-4.4015113e-05,0.00012588693,0.0004821371,4.1883154e-06,-1.0813739e-05,-7.877613e-05,-0.00020033198,-3.750253e-05,0.000121355,6.307718e-06,-1.411216e-05,6
3.8791437e-05,2.0111464e-05,7.905699e-05,0.0002780326,-3.8585795e-06,-1.8535282e-05,-7.676304e-05,-0.00035256598,-8.129309e-06,0.00016096742,1.4403332e-06,-1.29303235e-05,6
6.110761e-05,6.510323e-05,1.5945678e-05,9.8266224e-05,-9.603352e-06,-2.7263923e-05,-6.971448e-05,-0.00048835075,-1.5835843e-06,0.00022407873,-1.916408e-06,-1.0741392e-05,6
8.4095176e-05,6.460785e-05,-5.052262e-05,-4.1552048e-05,-1.09059765e-05,-3.4817615e-05,-5.3937754e-05,-0.0005207404,-4.3714135e-05,0.00028517586,-3.2589583e-06,-8.38461e-06,6
9.2647715e-05,5.4377215e-05,-0.00011430533,-0.000110370085,-1.1093055e-05,-3.7335834e-05,-2.3054597e-05,-0.00045644888,-0.00012109302,0.00031673152,-3.7622606e-06,-7.3706215e-06,6
4.597785e-05,6.630268e-05,-0.00019369803,-0.00011423047,-2.0340518e-05,-3.8343405e-05,4.4715707e-06,-0.00034532745,-0.00017413378,0.00029927518,-6.4476044e-06,-6.8601803e-06,6
-3.5772504e-05,8.7459855e-05,-0.0002853437,-0.00011540529,-3.859721e-05,-4.3715063e-05,7.4917493e-06,-0.00022161729,-0.00014509624,0.00022407873,-1.2489932e-05,-2.657056e-06,6
-8.076387e-05,7.370438e-05,-0.00034962996,-0.00022551425,-5.558957e-05,-5.076521e-05,1.9516144e-06,-0.00011737765,-2.928067e-05,0.00011396963,-1.8364408e-05,3.0567126e-06,6
-7.942885e-05,-4.7681408e-07,-0.00035869383,-0.00042861165,-6.4472086e-05,-5.3451273e-05,1.7826553e-06,-3.428701e-05,0.00010180919,4.699779e-06,-1.953911e-05,8.099084e-06,6
-8.010802e-05,-9.6142714e-05,-0.00033150223,-0.00053200667,-6.2438805e-05,-4.8416274e-05,1.0341857e-05,1.3555285e-05,0.00016710216,-7.6539254e-05,-1.7188971e-05,1.1127267e-05,6
-0.000107307365,-0.00014212522,-0.00030632486,-0.00042978633,-5.6941455e-05,-4.0024293e-05,4.2903495e-05,5.787275e-05,0.00015501663,-0.00012018006,-1.5174532e-05,1.146986e-05,6
-0.00016404818,-9.612638e-05,-0.00028953992,-0.00021409991,-5.656961e-05,-3.3478653e-05,7.966137e-05,8.926582e-05,0.0001415883,-0.00013562219,-1.3831491e-05,1.1141057e-05,6
-0.00022750295,2.5068937e-05,-0.0002730907,-4.4068496e-05,-5.943297e-05,-3.213634e-05,7.999595e-05,5.28478e-05,0.0001872429,-0.00013981841,-1.450264e-05,8.798065e-06,6
-0.00025973778,0.000124276,-0.00024875256,-1.2667988e-06,-5.9457474e-05,-3.3311764e-05,4.6760688e-05,-1.9443968e-08,0.0002533751,-0.00014703593,-1.467024e-05,7.1264694e-06,6
-0.00023725374,0.00014325113,-0.00020561532,-4.0207684e-05,-5.219837e-05,-3.1465905e-05,1.4532512e-05,3.154148e-05,0.00027015962,-0.00016348517,-1.3327198e-05,6.4619676e-06,6
-0.00015535108,0.00013721672,-0.00015106432,-7.461664e-05,-4.0315623e-05,-2.5088113e-05,-4.60342e-06,0.00015575519,0.00022131512,-0.00017137408,-1.047351e-05,4.7903727e-06,6
-5.2970805e-05,0.00012983952,-0.00010658427,-9.660475e-05,-3.208713e-05,-2.0388816e-05,-2.239656e-05,0.00024069217,0.00016307105,-0.00015526054,-7.1162744e-06,1.9438344e-06,6
1.3154031e-05,8.855678e-05,-7.553216e-05,-0.0001221177,-2.6520842e-05,-1.8207256e-05,-4.237174e-05,0.00017892891,0.00013755758,-0.00012538338,-4.933985e-06,-2.5811978e-06,6
3.1609685e-05,1.9075354e-05,-4.8004884e-05,-0.00012614595,-1.7164553e-05,-1.4682903e-05,-6.083628e-05,1.360269e-05,0.000114394,-0.00010540932,-2.0802959e-06,-6.7705305e-06,6
3.059483e-05,-3.5131787e-05,-1.963836e-05,-0.00010936087,-7.231276e-06,-1.2165645e-05,-7.17476e-05,-0.00013812775,5.9171212e-05,-0.00010691996,-1.0729502e-06,-7.2671796e-06,6
2.236246e-05,-7.423249e-05,6.0425727e-06,-8.3176266e-05,3.21832e-07,-1.1830428e-05,-6.251702e-05,-0.00020996196,-2.122896e-05,-0.00010960555,-2.2476413e-06,-5.7496372e-06,6
4.2269835e-06,-0.00012525049,2.3834591e-05,-4.0878123e-05,5.157483e-06,-1.4348649e-05,-4.220839e-05,-0.00020189992,-9.7097196e-05,-8.644236e-05,-4.765129e-06,-3.8963963e-06,6
-1.6090531e-05,-0.00018516452,3.1891355e-05,1.5519354e-05,5.5352325e-06,-1.5859772e-05,-1.9549869e-05,-0.00017973853,-0.00014493462,-5.1865416e-05,-9.464653e-06,-1.5396073e-06,6
-2.5162144e-05,-0.00023752532,3.27306e-05,7.225253e-05,5.003983e-06,-1.2838972e-05,1.0494016e-05,-0.00018846143,-0.00015752368,-3.27306e-05,-1.3492782e-05,-2.2064619e-08,6
-2.1980764e-05,-0.00026756217,2.7695125e-05,0.00011287218,6.1729534e-06,-7.1325785e-06,3.9027254e-05,-0.00017872089,-0.00013570368,-2.18204e-05,-1.6178117e-05,3.205343e-07,6
-1.8799381e-05,-0.00024355156,2.4673838e-05,0.00012428606,6.8783047e-06,-2.936831e-06,4.943278e-05,-0.00012366106,-8.602069e-05,-3.6926833e-06,-1.7520655e-05,-1.8546066e-06,6
-1.7128641e-05,-0.00015626181,3.6423284e-05,0.00011136179,7.339269e-06,2.5182243e-07,4.372477e-05,-8.085423e-05,-2.0559872e-05,2.0309757e-05,-1.44991145e-05,-4.1975954e-06,6
-1.0925969e-05,-4.832658e-05,5.7572288e-05,9.910893e-05,8.536771e-06,1.4262845e-06,2.5931618e-05,-7.447068e-05,3.818698e-05,4.6829937e-05,-9.96693e-06,-2.1765038e-06,6
-5.058996e-06,1.5799988e-05,7.368581e-05,8.7359615e-05,8.210746e-06,4.2792394e-06,-8.814308e-06,-6.456229e-05,6.2356885e-05,9.449912e-05,-5.770442e-06,1.8587783e-06,6
-4.7310455e-06,1.6143846e-05,8.241398e-05,4.7075926e-05,8.508666e-06,7.635739e-06,-6.068086e-05,-1.5880736e-05,4.171105e-05,0.00017741664,-3.9900993e-07,6.565457e-06,6
-1.0445666e-05,5.073955e-06,9.1813534e-05,-0.000103484716,1.2241597e-05,7.803106e-06,-0.00010684054,3.5486413e-05,1.7876075e-05,0.0002751049,7.322311e-06,8.5865495e-06,6
-1.1124807e-05,2.2202736e-05,0.00010188449,-0.00031816377,1.658627e-05,6.795527e-06,-0.000120269615,4.556265e-05,5.45485e-06,0.00035533684,1.554718e-05,7.586357e-06,6
3.3024824e-06,4.6045487e-05,0.00010557717,-0.00037305034,1.8752768e-05,6.962892e-06,-9.626832e-05,4.523223e-05,-1.2841098e-05,0.00034728006,2.0415066e-05,5.5790674e-06,6
2.4443743e-05,5.343901e-05,0.00010289159,-0.00018069499,1.9127274e-05,7.298106e-06,-5.1957257e-05,6.7561465e-05,-2.4926623e-05,0.0002423743,2.0415324e-05,3.403928e-06,6
3.652115e-05,5.244007e-05,9.785611e-05,0.0001054881,1.640202e-05,8.304718e-06,-1.0163938e-05,7.4784264e-05,-1.23383115e-05,9.449912e-05,1.856924e-05,1.5644888e-06,6
4.037394e-05,5.6140907e-05,9.114214e-05,0.00029415078,1.3394447e-05,9.814877e-06,1.6187249e-05,4.0884002e-05,2.1063308e-05,-4.0787367e-05,1.7562405e-05,8.999937e-07,6
4.3723187e-05,5.480627e-05,8.090333e-05,0.0003377917,1.4924003e-05,1.2835678e-05,2.4242869e-05,-1.2486767e-05,5.631127e-05,-0.00012806898,1.7898363e-05,-1.1072952e-06,6
4.539394e-05,4.3400676e-05,6.814679e-05,0.0002938153,1.958218e-05,1.9045616e-05,2.7598708e-05,-5.461164e-05,6.48712e-05,-0.0001755703,1.7898623e-05,-5.4644734e-06,6
3.7497288e-05,3.703056e-05,5.7572288e-05,0.0002214724,2.2471888e-05,2.4919853e-05,3.8675607e-05,-8.549062e-05,4.9260845e-05,-0.00020242618,1.6723938e-05,-9.485952e-06,6
8.283788e-06,3.2003238e-05,5.2201114e-05,0.00015349359,2.581876e-05,2.8444203e-05,4.9416813e-05,-8.934586e-05,3.1468448e-05,-0.00020595102,1.437431e-05,-1.0150447e-05,6
-4.6778496e-05,1.1533782e-05,4.9851224e-05,9.860701e-05,2.9151435e-05,3.0290059e-05,4.790502e-05,-3.9657192e-05,2.5761196e-05,-0.00018950179,1.1353284e-05,-8.800751e-06,6
-0.000107211956,-1.9006628e-05,4.901198e-05,4.6406014e-05,2.6507412e-05,2.676474e-05,4.303624e-05,2.849489e-05,3.381758e-05,-0.00016583505,6.989467e-06,-4.09407e-06,6
-0.00014213232,-5.6596706e-05,5.6229495e-05,-7.641322e-06,1.858383e-05,1.904319e-05,3.9342405e-05,7.079818e-05,3.7342037e-05,-0.0001352865,2.9613468e-06,4.808842e-06,6
-0.00013206911,-7.085574e-05,6.898604e-05,-4.591083e-05,9.356229e-06,8.971748e-06,2.9773846e-05,9.094538e-05,1.1157182e-05,-9.8191806e-05,-1.0667735e-06,1.23689615e-05,6
-6.057305e-05,-4.046688e-05,7.905699e-05,-6.336703e-05,-3.519126e-07,-9.259667e-08,1.5841206e-05,0.00010538571,-3.5337434e-05,-6.61326e-05,-3.0807005e-06,1.774704e-05,6
7.8062694e-05,7.881852e-06,9.080644e-05,-0.00012782103,-6.605574e-06,-6.471355e-06,1.14759705e-05,0.00012586861,-6.857196e-05,-3.5751887e-05,-3.7518328e-06,2.1614473e-05,6
0.00019756363,4.0452753e-05,0.00010591287,-0.00019596769,-8.589432e-06,-9.493128e-06,2.2385015e-05,0.00014870141,-7.5789845e-05,3.1891354e-06,-4.422968e-06,2.329987e-05,6
0.00020326278,4.7678415e-05,0.00011850156,-0.00014964119,-4.8970564e-06,-9.493615e-06,3.7993836e-05,0.00015575637,-6.0180246e-05,4.0787367e-05,-2.5763613e-06,2.2803224e-05,6
0.00013309407,5.6582572e-05,0.00011984436,-6.2978293e-06,7.780002e-07,-4.6264718e-06,5.058137e-05,0.0001433408,-4.1549356e-05,5.3543907e-05,1.9558336e-06,2.0292387e-05,6
7.937459e-05,8.0257465e-05,0.00010994126,7.93054e-05,6.526954e-06,3.9333513e-06,6.0819017e-05,0.00012488269,-4.977434e-05,3.8773174e-05,5.313084e-06,1.7110155e-05,6
6.258195e-05,9.7218384e-05,9.91989e-05,8.6523025e-05,1.2038126e-05,1.2325327e-05,6.954602e-05,0.000109781555,-8.0323276e-05,1.1917296e-05,6.3204457e-06,1.2081579e-05,6
5.1496187e-05,7.624537e-05,9.91989e-05,0.00015466994,1.6900009e-05,1.8367413e-05,6.2495186e-05,8.998064e-05,-0.0001135578,-1.2756542e-05,7.831355e-06,8.395799e-06,6
3.6046342e-05,3.546615e-05,0.00011027695,0.00032218357,2.1969327e-05,1.9541869e-05,3.731663e-05,6.749414e-05,-0.00013789629,-3.2394903e-05,1.08529075e-05,6.3885104e-06,6
3.4695833e-05,2.5739037e-05,0.00011866941,0.00047610144,2.6962198e-05,2.0884176e-05,1.5830765e-05,7.706684e-05,-0.00014259646,-5.2033265e-05,1.3538763e-05,4.381223e-06,6
5.4494332e-05,5.4952947e-05,0.00011229114,0.00050631445,3.067763e-05,2.3737126e-05,1.2304764e-05,0.000113159724,-0.00012379771,-7.1335926e-05,1.7063865e-05,-6.47353e-07,6
7.328574e-05,8.047417e-05,9.382772e-05,0.00041097618,3.169421e-05,2.4240186e-05,1.9185416e-05,0.00015412025,-0.00010214553,-9.080644e-05,1.756768e-05,-5.0045305e-06,6
7.89849e-05,6.923641e-05,6.9657435e-05,0.00025303013,3.132085e-05,2.3064753e-05,2.1534139e-05,0.00020884439,-8.485743e-05,-0.00010759136,1.3203869e-05,-5.6690255e-06,6
7.5955904e-05,4.289222e-05,5.1194016e-05,9.81054e-05,2.7668493e-05,2.1217922e-05,1.2804806e-05,0.00028169627,-5.4644937e-05,-0.00011833372,6.9937164e-06,-5.997822e-06,6
7.947303e-05,4.877508e-05,5.304036e-05,-3.583819e-05,2.2949129e-05,2.2728076e-05,1.5577373e-06,0.0003493448,-1.4697189e-05,-0.0001206836,2.6299049e-06,-9.347905e-06,6
9.171832e-05,8.285662e-05,6.999313e-05,-0.00014896847,2.1758859e-05,2.877016e-05,2.1377237e-07,0.0003970193,9.304884e-06,-0.00011967651,-7.2681024e-07,-1.6390672e-05,6
0.00010362792,9.595699e-05,8.140688e-05,-0.00022718612,2.3811788e-05,3.598719e-05,9.444309e-06,0.00041229886,1.9711168e-05,-0.0001206836,-2.90858e-06,-2.1922795e-05,6
0.00011150913,6.1723884e-05,7.3517964e-05,-0.00026377712,2.5450545e-05,4.0854327e-05,3.3109878e-05,0.0003797414,2.7935412e-05,-0.00011900511,-5.258198e-06,-2.4433632e-05,6
0.00010881584,1.8762616e-05,4.36408e-05,-0.0002946613,2.428953e-05,4.4378674e-05,7.288897e-05,0.00030589307,2.8270742e-05,-0.00010373083,-6.432872e-06,-2.4762428e-05,6
8.4302155e-05,1.0546136e-05,-1.2420844e-05,-0.00031799224,2.330117e-05,4.4042485e-05,0.000100415076,0.00020737086,5.946428e-06,-7.502861e-05,-5.929051e-06,-2.206994e-05,6
4.7367626e-05,3.6067355e-05,-7.301442e-05,-0.0003082569,2.3595341e-05,3.9677914e-05,0.00010696002,9.9952646e-05,-2.9302279e-05,-3.541619e-05,-4.753836e-06,-1.719541e-05,6
1.1272345e-05,6.0413626e-05,-0.00012001221,-0.00028291153,2.027475e-05,3.1788513e-05,0.00010209121,-1.8543607e-05,-4.3234133e-05,1.6784923e-05,-5.0892613e-06,-1.2320883e-05,6
-2.834777e-05,1.2752571e-05,-0.00017087052,-0.00027754027,1.1704133e-05,2.0709973e-05,7.6241246e-05,-0.0001412361,-4.273095e-05,6.6468296e-05,-7.2710272e-06,-7.278505e-06,6
-6.1421764e-05,-8.996303e-05,-0.00022206454,-0.0002886182,3.9589513e-06,9.967132e-06,3.293496e-05,-0.00021390952,-5.330582e-05,9.282063e-05,-7.774302e-06,-4.2503184e-06,6
-8.173921e-05,-0.00011026466,-0.0002324712,-0.00027183318,8.1135937e-07,-4.4001104e-07,-1.0371328e-05,-0.00019393016,-5.414543e-05,0.00010994126,-6.599084e-06,-4.4112676e-06,6
-0.00010474225,-4.294899e-05,-0.00019957275,-0.00020200781,-2.305171e-07,-9.336513e-06,-4.57887e-05,-0.00013870244,-3.5682377e-05,0.00013646143,-4.2489196e-06,-9.775544e-06,6
-0.00013244504,7.917456e-06,-0.00016231021,-9.223431e-05,-3.0796175e-06,-2.1422147e-05,-8.389166e-05,-0.00015363572,-3.7025533e-05,0.00016700999,-3.0737006e-06,-2.0007448e-05,6
-0.00012456381,-2.648919e-06,-0.00015072862,2.2910372e-05,-8.759526e-06,-3.2836386e-05,-0.00012417667,-0.0002456118,-6.4888874e-05,0.0001782559,-3.9126703e-06,-2.9232257e-05,6
-5.2396328e-05,-2.9832372e-05,-0.00016247806,0.000116234645,-1.534886e-05,-3.703311e-05,-0.00014398406,-0.0003973422,-8.335265e-05,0.00016734569,-5.7587367e-06,-3.6778572e-05,6
2.245675e-05,-2.1935333e-05,-0.0001646601,0.00017397488,-2.2032333e-05,-3.904779e-05,-0.00014969213,-0.00059842033,-7.680689e-05,0.00015559624,-4.2478173e-06,-3.8953716e-05,6
2.4127563e-05,4.5929696e-06,-0.00013377584,0.00018236742,-2.8075416e-05,-4.408376e-05,-0.00015540018,-0.0006801575,-4.9951377e-05,0.00015391775,-1.3941049e-06,-3.0050807e-05,6
-2.0192314e-05,2.3568055e-05,-7.3350115e-05,0.00014846199,-3.2303302e-05,-5.2141015e-05,-0.0001517087,-0.0005277451,-1.7892535e-05,0.00015291065,2.8466525e-07,-1.7958764e-05,6
-3.111019e-05,4.438948e-05,2.5177385e-06,0.00011170309,-3.3771834e-05,-5.482709e-05,-0.000119986384,-0.00033387396,7.116641e-06,0.00014619669,1.2920387e-06,-1.1909293e-05,6
1.03409e-05,6.974283e-05,6.697184e-05,9.3239774e-05,-2.859651e-05,-4.7610065e-05,-6.0904644e-05,-0.00027931764,3.0111625e-05,0.00015358205,1.4601657e-06,-8.209712e-06,6
5.5316825e-05,8.18361e-05,9.8191806e-05,7.343366e-05,-2.172021e-05,-3.871455e-05,6.0660127e-06,-0.00027931234,5.7974237e-05,0.00015996033,9.568951e-07,-2.160243e-06,6
4.960228e-05,8.268346e-05,9.6345466e-05,2.3582523e-05,-1.76581e-05,-3.435096e-05,6.3301406e-05,-0.00019907508,8.684395e-05,0.00013780422,-3.856181e-07,4.224926e-06,6
2.5968275e-06,8.453791e-05,8.140688e-05,-3.7514506e-05,-1.6022237e-05,-3.1330164e-05,8.8981134e-05,-1.9303236e-05,0.00011739215,9.802396e-05,-3.0709277e-06,1.04422425e-05,6
-2.560951e-05,8.337109e-05,7.066453e-05,-5.3963646e-05,-1.19709075e-05,-2.595948e-05,8.159458e-05,0.00016667903,0.00015499003,6.6636145e-05,-7.266878e-06,1.5820315e-05,6
-2.1588794e-05,4.8970105e-05,5.48867e-05,-1.7372422e-05,-1.0283128e-05,-2.1260194e-05,5.591245e-05,0.00025060895,0.00017899211,5.2368963e-05,-9.616489e-06,1.9519895e-05,6
-3.4687382e-06,-3.1757267e-05,1.9134814e-05,2.8114813e-05,-1.2670555e-05,-1.8742947e-05,2.3180646e-05,0.00023533999,0.00016959218,4.179446e-05,-1.0623302e-05,2.1708829e-05,6
1.8176155e-05,-9.721035e-05,-2.5680933e-05,4.0367897e-05,-1.8672723e-05,-1.7232798e-05,-1.4250932e-05,0.00019623643,0.00013820404,1.980621e-05,-1.1965816e-05,2.1044327e-05,6
4.9220605e-05,-0.00012758297,-5.7572288e-05,2.2575963e-05,-2.6245703e-05,-1.4044155e-05,-4.8661226e-05,0.00014622266,0.000119908094,-1.3595788e-05,-1.2133384e-05,1.937273e-05,6
9.1678805e-05,-0.00015392718,-7.032883e-05,1.7627443e-06,-3.0624888e-05,-1.10233605e-05,-6.679015e-05,4.1154362e-05,0.00013081793,-4.5822842e-05,-1.1797404e-05,2.1225964e-05,6
0.0001166807,-0.00017624302,-6.4957654e-05,-9.986617e-06,-3.1761167e-05,-1.0184609e-05,-6.309867e-05,-5.6025034e-05,0.0001274606,-6.9657435e-05,-1.0790025e-05,2.2743503e-05,6
9.888102e-05,-0.00016096064,-4.448005e-05,-1.300782e-05,-2.9451083e-05,-9.345857e-06,-4.6314948e-05,-5.6523266e-05,8.247665e-05,-8.073548e-05,-1.0621893e-05,2.0736203e-05,6
4.68401e-05,-0.00011647248,-1.8966964e-05,-8.811502e-06,-2.440146e-05,-5.989365e-06,-3.1209725e-05,-2.7815735e-05,2.842884e-05,-7.368581e-05,-9.614516e-06,1.805751e-05,6
-2.2657128e-05,-9.565107e-05,-1.6784924e-06,5.881371e-07,-1.8340326e-05,-1.6257774e-06,-1.7111595e-05,-7.464035e-05,-1.0588426e-07,-3.508049e-05,-5.921547e-06,1.5546662e-05,6
-0.00010759649,-0.00011393854,1.7120623e-05,9.987778e-06,-8.982219e-06,4.91985e-06,7.728884e-06,-0.0001501672,-1.1133335e-06,2.5848783e-05,-2.0607308e-06,1.5217855e-05,6
-0.00021771323,-0.0001328974,3.8773174e-05,3.2738901e-06,-1.728184e-06,1.06262305e-05,2.8373131e-05,-0.00015284748,6.4395285e-06,4.5151446e-05,-1.2212014e-06,1.3378405e-05,6
-0.00030835948,-0.000105865576,5.1194016e-05,-2.1399868e-05,9.4690245e-07,1.2975626e-05,2.9714713e-05,-6.3882064e-05,1.2985296e-05,-2.1820401e-06,-1.5566144e-06,9.524763e-06,6
-0.00028889658,-4.3585413e-05,5.4383152e-05,-4.1038147e-05,1.762228e-06,1.2303734e-05,2.1153191e-05,5.4456967e-05,1.567053e-05,-7.200732e-05,-1.052782e-06,4.999724e-06,6
-0.00018013793,-2.454252e-06,5.2536812e-05,-4.6409245e-05,4.6095613e-07,1.0792598e-05,1.7123599e-05,0.0001056563,5.9349227e-06,-0.00011497673,-2.1324816e-07,1.389853e-07,6
-6.483313e-05,7.2890994e-06,4.7501333e-05,-3.818455e-05,-7.488818e-07,8.945762e-06,2.1150765e-05,8.78696e-05,-1.9242816e-05,-0.00012773328,9.619811e-07,-3.3789593e-06,6
-1.8973044e-06,9.98278e-06,3.9948118e-05,-2.2070946e-05,7.6632574e-07,6.763228e-06,2.6185031e-05,7.176138e-05,-4.5595498e-05,-0.00012404058,1.2302282e-07,-3.5399198e-06,6
1.0515908e-05,1.2340763e-05,3.2059204e-05,-5.6815657e-05,4.150127e-06,6.9305825e-06,1.8966293e-05,8.351615e-05,-5.7513145e-05,-0.00011631952,-3.0658261e-06,-6.795951e-07,6
3.7943084e-06,2.781446e-06,2.7191576e-05,-0.00030405752,6.4568308e-06,7.769335e-06,-1.886203e-09,0.00010064209,-5.0631676e-05,-0.00011094835,-4.2404827e-06,3.859221e-06,6
-4.270082e-06,-1.349184e-05,2.4673838e-05,-0.00076094305,4.9768473e-06,5.586798e-06,-1.1584702e-05,9.393344e-05,-3.6868387e-05,-0.00010859846,-3.4009486e-06,6.719545e-06,6
-1.6530703e-05,-2.1204816e-05,3.0045014e-05,-0.000992575,2.9619487e-06,5.250605e-06,-8.396785e-06,6.255094e-05,-2.931552e-05,-9.869535e-05,-1.38647e-06,8.404924e-06,6
-4.1044314e-05,-2.1532429e-05,5.1194016e-05,-0.00059561146,5.6160466e-06,8.942793e-06,-5.5436495e-09,3.0161358e-05,-3.0155115e-05,-6.4957654e-05,1.2446282e-07,8.076112e-06,6
-7.411823e-05,-1.9174455e-05,8.812085e-05,0.00026159472,1.1868604e-05,1.2131434e-05,8.889243e-06,2.6473992e-05,-3.33446e-05,-1.9974059e-05,1.971093e-06,9.090091e-06,6
-9.426776e-05,1.07107935e-05,0.00012471198,0.00089438644,1.8386574e-05,1.6830718e-05,1.979822e-05,7.247001e-05,-3.3680644e-05,-1.0238804e-05,5.160519e-06,9.768373e-06,6
-9.209334e-05,7.852996e-05,0.00014888227,0.0009182211,2.6605898e-05,2.5054835e-05,3.7756865e-05,0.0001423006,-2.7638423e-05,-5.2033265e-05,9.35704e-06,9.943106e-06,6
-7.984796e-05,0.00012050036,0.00015895323,0.00056875905,3.3689183e-05,3.109691e-05,5.3701326e-05,0.00018359683,-1.9582007e-05,-0.00010457008,9.52518e-06,9.110742e-06,6
-6.0888604e-05,7.183215e-05,0.00015878538,0.00027535865,3.599642e-05,3.076072e-05,4.849677e-05,0.00018695914,-1.0014945e-05,-0.00013545433,7.679128e-06,5.7606417e-06,6
-2.4808633e-05,-2.7862212e-05,0.00015291065,0.00021442944,3.669096e-05,2.8578183e-05,2.7850087e-05,0.00017118662,4.9232904e-06,-0.00015307851,6.336627e-06,3.9211805e-06,6
2.5874231e-05,-9.600093e-05,0.00014216831,0.0003149712,3.7874997e-05,2.8577686e-05,1.6267259e-05,0.00016649216,1.734379e-05,-0.00017221332,3.6513309e-06,8.124293e-06,6
6.6150445e-05,-0.0001084137,0.00011564812,0.00043246572,3.7334037e-05,2.891289e-05,2.4322795e-05,0.00019872453,2.456096e-05,-0.00019789425,2.6445273e-06,1.3166651e-05,6
6.9164125e-05,-9.783112e-05,7.418936e-05,0.00047778513,3.7542366e-05,2.740175e-05,4.6477668e-05,0.00024270634,-9.524675e-07,-0.00021266498,4.994709e-06,1.3509229e-05,6
5.2035903e-05,-6.0056973e-05,3.6087586e-05,0.00041366677,3.8025977e-05,2.5554911e-05,7.182166e-05,0.00026587487,-9.746612e-05,-0.00018950179,9.526932e-06,8.480631e-06,6
5.018196e-05,-2.3087634e-06,1.0574502e-05,0.00025253155,3.9018185e-05,2.3540224e-05,9.364084e-05,0.00024036711,-0.0002554126,-0.00012437628,1.0702171e-05,1.1021432e-06,6
6.276306e-05,2.2540993e-05,-1.0406653e-05,0.00012026643,3.7713988e-05,2.102199e-05,0.00011243872,0.00015241942,-0.00038834955,-4.9851224e-05,7.6811775e-06,-5.2692512e-06,6
6.997298e-05,3.749944e-06,-4.850843e-05,7.763279e-05,3.0960142e-05,1.8671602e-05,0.00011982284,2.0159541e-05,-0.00042846586,6.5461204e-06,7.010076e-06,-7.444414e-06,6
6.0733677e-05,-8.662835e-06,-0.0001223621,5.1784067e-05,2.0064306e-05,1.6992613e-05,0.00011612893,-0.000110757544,-0.00037995778,3.8605325e-05,5.667576e-06,-1.6837095e-05,6
3.017753e-05,1.5851218e-05,-0.00021803616,-2.4913209e-07,8.165394e-06,1.4474379e-05,9.296451e-05,-0.0002091119,-0.00027068824,5.1194016e-05,1.4716412e-06,-3.7811376e-05,6
2.3069688e-06,3.3819146e-05,-0.0002804761,-6.0842645e-05,-3.4575728e-06,8.26346e-06,3.5055276e-05,-0.00027893184,-0.00013473071,4.9851224e-05,-7.101041e-07,-5.8282105e-05,6
6.1599158e-06,9.4890665e-06,-0.0002740978,-0.00013889247,-1.6345324e-05,2.0619859e-07,-5.6088098e-05,-0.00032072098,-3.7042795e-05,5.2201114e-05,1.136535e-06,-6.935328e-05,6
3.0490473e-05,-1.0476934e-05,-0.00021065079,-0.00020687137,-2.9783956e-05,-9.026005e-06,-0.00015042062,-0.00030997334,-8.340915e-06,6.9489586e-05,-1.0452104e-06,-7.3206946e-05,6
5.0624803e-05,1.8401193e-05,-0.000121355,-0.00021257818,-4.071788e-05,-2.279014e-05,-0.00022393982,-0.00023762498,1.952172e-05,9.231708e-05,-5.9125396e-06,-7.471071e-05,6
5.7666894e-05,7.34638e-05,-4.6997786e-05,-0.00017346925,-4.587971e-05,-3.353299e-05,-0.00025314683,-0.00017551544,0.00010529234,0.00010373083,-9.101378e-06,-7.487169e-05,6
5.195244e-05,0.00011946255,-1.1078049e-05,-0.00015164877,-4.490762e-05,-3.2694243e-05,-0.00021353565,-0.0001560396,0.00021909378,9.6513315e-05,-1.0443874e-05,-7.2850635e-05,6
4.053112e-05,0.00014481583,-7.3853666e-06,-0.00012898908,-4.0035196e-05,-2.4805824e-05,-0.00012474465,-9.997264e-05,0.00031594245,7.905699e-05,-1.0611425e-05,-5.6898083e-05,6
1.9710245e-05,0.00015120214,-2.8030823e-05,-1.7033573e-05,-3.3965956e-05,-1.876375e-05,-3.7632133e-05,-6.978843e-06,0.00036377914,5.690089e-05,-1.1114675e-05,-2.063578e-05,6
-7.8245985e-06,0.00014248204,-5.992218e-05,0.00012731683,-3.0652125e-05,-1.6078659e-05,1.5071281e-05,5.0934465e-05,0.00034565112,3.27306e-05,-1.3128567e-05,1.9654908e-05,6
-1.6056776e-05,0.00012771935,-8.0064085e-05,0.00018472131,-2.9614208e-05,-1.6079157e-05,3.621904e-05,7.729211e-05,0.00028018956,8.89601e-06,-1.6485254e-05,4.450346e-05,6
3.5740204e-06,0.0001144673,-8.812085e-05,0.00014980874,-2.9950812e-05,-1.8933093e-05,3.823198e-05,0.00011321717,0.0001966003,-2.6855878e-06,-1.9841938e-05,5.8273967e-05,6
3.3275774e-05,9.584409e-05,-0.00010020599,8.384404e-05,-3.4514065e-05,-2.2290576e-05,4.125202e-05,0.00014679233,0.00013080306,2.635233e-05,-2.1855827e-05,7.0533824e-05,6
5.1228086e-05,5.120422e-05,-9.95346e-05,1.7040096e-05,-3.4471905e-05,-1.8598392e-05,5.8035694e-05,0.00015418303,9.135815e-05,0.00011329824,-2.2191223e-05,8.329723e-05,6
5.5920307e-05,-2.7676882e-05,-7.217517e-05,-5.1106643e-05,-2.2918604e-05,-6.3458974e-06,8.00227e-05,0.00018087636,6.685183e-05,0.00022508582,-2.4540812e-05,9.992117e-05,6
5.0373732e-05,-9.5144234e-05,-3.9108872e-05,-0.000117407035,-4.292399e-06,8.592187e-06,9.009239e-05,0.00023174,4.7045287e-05,0.00029222554,-2.6219002e-05,0.00012309123,6
2.5692341e-05,-8.9765024e-05,-1.779202e-05,-0.00016155135,1.1518933e-05,1.8830493e-05,8.337717e-05,0.0001941471,2.4721005e-05,0.00027040511,-2.5547304e-05,0.0001418972,6
-1.2752684e-05,-2.0603107e-05,-1.2252995e-05,-0.00018823931,1.7183138e-05,2.403332e-05,7.4815616e-05,2.9995863e-05,-1.1281107e-06,0.00015140002,-2.0679374e-05,0.000143079,6
-3.6259124e-05,4.8055263e-05,-1.8966964e-05,-0.00021526299,1.4688736e-05,2.5543464e-05,7.951413e-05,-0.00015580792,-2.9327115e-05,-1.4602883e-05,-1.211876e-05,0.00011656569,6
-4.5834073e-05,7.6933364e-05,-2.433814e-05,-0.00023590842,1.1172803e-05,2.5207266e-05,9.210157e-05,-0.00028085028,-5.5344077e-05,-0.00015307851,-5.0687895e-06,7.6792276e-05,6
-9.132876e-05,7.811633e-05,-2.0141908e-05,-0.00023406201,6.435737e-06,1.8996347e-05,9.025397e-05,-0.0003134077,-8.1696744e-05,-0.00022105745,9.740862e-07,4.5243476e-05,6
-0.00017156823,7.6949415e-05,-1.1581597e-05,-0.00022885864,-1.2447709e-06,6.9107014e-06,6.3732536e-05,-0.00026825097,-0.00010553166,-0.00021937896,9.366853e-06,2.3597784e-05,6
-0.00023569417,7.628604e-05,-1.7120623e-05,-0.00026125347,-1.3182181e-05,-1.0713969e-05,1.2705103e-05,-0.0002101698,-0.000103853505,-0.00016919203,1.8934565e-05,1.638712e-05,6
-0.00025517223,7.679761e-05,-3.105211e-05,-0.00027921333,-2.5449845e-05,-2.565305e-05,-5.879993e-05,-0.00014084275,-4.0406823e-05,-0.00010691996,2.6991633e-05,1.9079564e-05,6
-0.0001987824,9.275131e-05,-1.8127717e-05,-0.00022768354,-2.7593354e-05,-2.3303659e-05,-0.0001123451,-2.367866e-05,8.2458486e-05,-4.3137254e-05,3.2363114e-05,1.4722336e-05,6
-1.2812978e-05,0.00013388238,1.963836e-05,-0.00026108552,-1.60517e-05,-6.519237e-06,-0.00010898937,0.000108424014,0.00020095972,3.27306e-05,3.63918e-05,-3.7724206e-07,6
0.00022602898,0.00016208908,6.2775616e-05,-0.0005704316,-6.63756e-06,2.8798222e-06,-6.28321e-05,0.00016432312,0.00024812503,9.1477836e-05,3.6895657e-05,-1.0777043e-05,6
0.00034636934,0.00014296228,0.00010322729,-0.00093634287,-4.101614e-06,-1.8204576e-06,-6.2681693e-06,0.00014116525,0.00020599454,0.00011296254,3.3874676e-05,-1.04344945e-05,6
0.0003257164,9.597251e-05,0.0001352865,-0.0009360072,8.9257213e-07,-3.4994496e-06,5.5834786e-05,9.8201155e-05,0.000104613275,0.00011934081,2.8503806e-05,-6.7349615e-06,6
0.00024245563,5.3682506e-05,0.00015156786,-0.000523098,1.1335988e-05,4.2211163e-06,0.00010753108,5.993685e-05,3.2320065e-06,0.0001455253,2.3132938e-05,-3.0354297e-06,6
0.00016574102,2.2470555e-05,0.00015190356,3.7686354e-05,2.2235303e-05,1.1270283e-05,0.00011810431,5.087831e-05,-6.239737e-05,0.00018245212,1.9776262e-05,1.3354982e-06,6
0.00012024635,-4.331834e-05,0.0001352865,0.0005274705,2.8590048e-05,7.577099e-06,7.714784e-05,0.000116680516,-0.00012013784,0.00019856566,1.8433775e-05,5.5385744e-06,6
8.985814e-05,-0.00016500105,0.00012370489,0.00084990886,2.7624428e-05,-6.0191906e-06,-9.0332736e-07,0.00020531025,-0.00018106743,0.00018446632,1.6587743e-05,6.7203646e-06,6
7.843688e-05,-0.00023532186,0.00014283971,0.0009689141,2.2553839e-05,-1.8608382e-05,-8.2311475e-05,0.00021236522,-0.00021396621,0.00014837872,1.4070313e-05,1.6917314e-06,6
8.984313e-05,-0.00016649568,0.00018110932,0.0009101669,1.886618e-05,-2.5322852e-05,-0.00013552095,0.00011568938,-0.00021447008,0.00010960555,9.035145e-06,-7.1974355e-06,6
0.000121055586,-2.4487224e-05,0.00021400778,0.0007544028,2.040334e-05,-2.800894e-05,-0.00014660029,-3.637671e-05,-0.00020037108,8.107118e-05,1.1465418e-06,-1.6590151e-05,6
0.00016015695,9.435803e-05,0.00021333639,0.0005667474,2.5563542e-05,-2.4820305e-05,-0.00011722794,-0.00013103837,-0.00017368337,5.3376058e-05,-6.742063e-06,-2.3465129e-05,6
0.00018666965,0.00012894298,0.00016096742,0.00036700684,2.9287212e-05,-1.5421248e-05,-6.9056485e-05,-0.000112569636,-0.00013356772,2.5345234e-05,-1.1777231e-05,-2.6143878e-05,6
0.0002000901,6.4329e-05,6.0929273e-05,0.00016894475,3.2307395e-05,-5.3507965e-06,-3.934844e-05,-2.7968303e-05,-9.445918e-05,4.867628e-06,-1.4126807e-05,-2.5465642e-05,6
0.00019336863,-4.593996e-05,-5.55581e-05,6.1310325e-06,2.7912154e-05,-6.0226953e-06,-4.2035303e-05,5.3947442e-05,-6.995351e-05,-1.4938582e-05,-1.4965742e-05,-2.2773218e-05,6
0.00013293543,-0.00013455637,-0.00015257495,-9.155719e-05,9.15523e-06,-1.6765547e-05,-5.8485806e-05,2.0047211e-05,-4.9476224e-05,-3.5751887e-05,-1.6643924e-05,-1.8402301e-05,6
3.4232584e-05,-0.0001778535,-0.00022743572,-0.00012865184,-1.7057697e-05,-3.153678e-05,-7.376137e-05,-0.00012748696,4.2352117e-06,-5.1194016e-05,-1.8825649e-05,-1.537418e-05,6
-5.9770467e-05,-0.00020973686,-0.00029306478,-0.00013553363,-4.2575608e-05,-4.2951033e-05,-8.366575e-05,-0.00024178698,0.00010125175,-5.6733043e-05,-2.1510927e-05,-1.3353157e-05,6
-0.00016300523,-0.0002476628,-0.00035030136,-0.0001341908,-6.1005634e-05,-4.8154856e-05,-8.265993e-05,-0.00031882443,0.00019877183,-5.3543907e-05,-2.2853408e-05,-9.653641e-06,6
-0.0002930959,-0.00023489828,-0.0003947814,-0.00015936815,-7.3133466e-05,-5.1512347e-05,-7.4940144e-05,-0.00037370584,0.00025835802,-5.8579386e-05,-2.1174601e-05,-4.611333e-06,6
-0.00041915814,-0.00015264418,-0.00042902265,-0.0002506781,-7.780971e-05,-4.8827256e-05,-7.477358e-05,-0.00035271936,0.00027480692,-7.3350115e-05,-1.7481603e-05,-4.2688052e-06,6
-0.00046767402,-9.01963e-05,-0.0004278477,-0.0003352741,-6.538016e-05,-3.7581864e-05,-7.225712e-05,-0.0002614041,0.00024325092,-7.70428e-05,-1.1270868e-05,-5.77262e-06,6
-0.000399199,-0.00011335152,-0.00034946212,-0.00030271133,-4.091133e-05,-2.230808e-05,-5.614488e-05,-0.00015783579,0.00015059783,-5.958648e-05,-4.2208844e-06,-7.6121346e-06,6
-0.00029530778,-0.00017527991,-0.00019050889,-0.0001445973,-2.0225241e-05,-1.0559136e-05,-2.895459e-05,-7.659144e-05,2.538198e-05,-3.709468e-05,2.1577005e-06,-1.0962293e-05,6
-0.0002535208,-0.00019709236,-1.8966964e-05,4.910074e-05,-9.33533e-06,-4.8527654e-06,1.4248366e-06,-3.126683e-05,-6.257134e-05,-2.9709316e-05,7.025645e-06,-1.43124535e-05,6
-0.00025520675,-0.00017039635,0.00010524147,0.00018220521,-6.6641915e-06,-6.1960613e-06,2.7104486e-05,1.0365093e-05,-8.9427536e-05,-5.320821e-05,9.879397e-06,-1.430563e-05,6
-0.0002508501,-0.00014151832,0.00016583505,0.00021745358,-7.1292798e-06,-1.0728491e-05,3.9859744e-05,5.9382386e-05,-8.8252906e-05,-0.00010389868,1.1390357e-05,-1.16132205e-05,6
-0.00023877242,-0.00012875382,0.00016096742,0.00018170172,-9.687026e-06,-1.2575333e-05,4.220834e-05,7.600477e-05,-9.5470736e-05,-0.00014569313,1.13906735e-05,-8.585114e-06,6
-0.00021998075,-0.000120017714,0.00010289159,0.00012564009,-1.0007924e-05,-7.5403595e-06,5.3285097e-05,6.14072e-05,-0.00011359877,-0.00014972153,9.041101e-06,-5.5570085e-06,6
-0.00014462387,-0.0001334377,3.6758982e-05,7.612459e-05,-4.954414e-06,3.705036e-06,8.786075e-05,5.7887668e-05,-0.00012333435,-0.00011917296,5.6844337e-06,-3.871698e-06,6
5.761589e-06,-0.00013007276,4.867628e-06,3.349091e-05,-4.636947e-07,1.31040915e-05,0.00011773662,7.283157e-05,-9.899651e-05,-7.536431e-05,4.0062596e-06,-2.857786e-06,6
0.00012089872,-5.8896727e-05,3.8605326e-06,-1.0317723e-05,-3.2802463e-06,1.4446384e-05,0.000114378345,7.686525e-05,-3.1857136e-05,-4.347295e-05,4.6779746e-06,3.1916018e-06,6
0.000121059136,1.2950696e-05,9.231708e-06,-6.570795e-05,-7.8232515e-06,1.3606635e-05,8.366064e-05,7.535992e-05,5.5592005e-05,-3.1723506e-05,6.3567863e-06,1.5787109e-05,6
9.553862e-05,4.9214075e-05,1.8631266e-05,-0.00016306048,-6.335938e-06,1.8977307e-05,5.4621436e-05,9.836057e-05,0.00012726332,-2.9709316e-05,7.5320495e-06,2.5361327e-05,6
0.00012221921,9.5548414e-05,3.944457e-05,-0.0003497088,8.3788144e-08,2.451583e-05,3.632457e-05,0.00014066389,0.00014857986,-2.0309757e-05,9.714409e-06,2.3353949e-05,6
0.00016132067,0.00017880957,6.630045e-05,-0.00049573765,6.4268365e-06,2.5018875e-05,2.00419e-05,0.0001641681,9.5874886e-05,-7.645633e-20,1.3575262e-05,8.2543265e-06,6
0.00015359218,0.0002748273,9.3492024e-05,-0.00040509904,7.7748855e-06,2.2668482e-05,5.2698674e-06,0.0001552774,-4.6671203e-06,1.09102e-05,1.642902e-05,-6.34175e-06,6
0.0001084333,0.00031981882,0.00012605477,-0.00010666307,3.7728717e-06,1.7296805e-05,-9.3343115e-06,0.00012221641,-6.861799e-05,3.524834e-06,1.3743752e-05,-1.2377516e-05,6
7.6030985e-05,0.00028222852,0.00016902418,0.00020939707,2.3869889e-06,1.4275014e-05,-2.5616988e-05,6.5992215e-05,-4.478371e-05,-7.217517e-06,8.205048e-06,-1.4384902e-05,6
7.434507e-05,0.00020737568,0.00020611887,0.00031698844,1.0978447e-05,1.7631497e-05,-3.8039132e-05,-2.484969e-06,1.4634612e-05,-1.4435034e-05,4.6805353e-06,-1.4713796e-05,6
8.222658e-05,0.00012815878,0.00022005035,0.0002493452,2.2894441e-05,2.1995074e-05,-2.9983668e-05,-3.0846182e-05,3.494406e-05,-2.198825e-05,5.016555e-06,-1.6889035e-05,6
7.869433e-05,5.733432e-05,0.00021937896,0.0001981512,3.595569e-05,2.4848008e-05,5.934769e-06,-1.2994127e-06,1.373904e-06,-2.3163195e-05,9.213109e-06,-2.5274694e-05,6
5.720222e-05,1.5547786e-05,0.00021249714,0.00019210865,4.6404562e-05,2.8372338e-05,4.3867392e-05,3.9661107e-05,-4.562419e-05,-1.3763638e-05,1.0891924e-05,-3.533885e-05,6
3.1010335e-05,-4.418354e-06,0.00019252308,7.7971185e-05,4.738307e-05,3.0386025e-05,6.4343694e-05,6.31653e-05,-7.718015e-05,7.888914e-06,8.206659e-06,-4.8088597e-05,6
2.0428433e-05,-1.8174072e-05,0.00015626765,-0.00020787607,3.9993105e-05,2.870703e-05,7.7266785e-05,8.885154e-05,-9.6650976e-05,1.560998e-05,6.024942e-06,-5.680996e-05,6
3.300973e-05,-1.5648418e-05,0.00011564812,-0.0004824774,3.583015e-05,3.0049321e-05,9.270761e-05,0.00012494443,-0.00012854264,-2.1316853e-05,6.360965e-06,-4.8410704e-05,6
5.5158434e-05,6.347746e-06,7.972839e-05,-0.00046854588,4.1997868e-05,3.3405802e-05,0.00010646994,0.00012998522,-0.00020491435,-7.570001e-05,7.704082e-06,-2.842985e-05,6
5.9011578e-05,2.4651225e-05,3.793393e-05,-0.00010834143,4.9910508e-05,3.2398202e-05,0.00010898637,4.035902e-05,-0.00029454613,-0.00010121309,8.375804e-06,-1.8855651e-05,6
3.466605e-05,9.049155e-06,-2.1484702e-05,0.00035458678,4.740129e-05,2.8369319e-05,9.8578406e-05,-8.971884e-05,-0.00035127948,-9.030289e-05,5.690541e-06,-1.7841765e-05,6
3.942254e-06,-5.271146e-05,-9.214923e-05,0.00064060185,3.5782658e-05,2.3669036e-05,7.977799e-05,-0.000118751464,-0.00037796784,-3.9108872e-05,1.1589383e-06,-1.1792404e-05,6
-1.0668011e-05,-7.989513e-05,-0.000154757,0.00067014334,2.3234674e-05,1.8465205e-05,5.4934993e-05,-6.268451e-05,-0.00037226125,2.7695125e-05,-3.204817e-06,-1.7146626e-06,6
-1.5375168e-05,-1.9125808e-05,-0.00020041199,0.00051572203,1.21361645e-05,9.568692e-06,2.6399312e-05,-2.8437962e-05,-0.00030445048,5.6229495e-05,-5.386531e-06,8.027379e-06,6
-1.6389638e-05,5.742134e-05,-0.00022911422,0.0002867757,1.043885e-06,2.8542195e-06,-1.1292763e-06,4.8014867e-06,-0.00015909332,3.1723506e-05,-7.232545e-06,1.5755228e-05,6
-1.15633675e-07,8.96563e-05,-0.0002311284,9.341339e-05,-9.827927e-06,1.1752226e-06,-2.6979373e-05,3.48518e-05,3.1415253e-05,-1.7288472e-05,-9.24641e-06,1.8111898e-05,6
2.5390082e-05,8.395731e-05,-0.00021266498,-1.4681512e-05,-2.1785292e-05,1.1747186e-06,-6.256472e-05,-9.790799e-06,0.0001985928,-5.5893797e-05,-9.246082e-06,1.1908259e-05,6
3.5285822e-05,6.667674e-05,-0.00018950179,-7.796067e-05,-3.5030367e-05,-1.5113744e-06,-9.949287e-05,-9.337442e-05,0.00032414374,-7.267872e-05,-8.742208e-06,5.0128807e-07,6
2.5207506e-05,3.781455e-05,-0.00016382086,-0.00012831544,-3.920874e-05,-4.0296154e-06,-0.00011426492,-9.252988e-05,0.00041881038,-6.730754e-05,-9.748976e-06,-8.387943e-06,6
1.2779304e-05,-5.9862173e-06,-0.00013360799,-0.0001595354,-3.3207292e-05,-3.1908746e-06,-9.98312e-05,2.4298488e-05,0.00047722162,-4.448005e-05,-1.0420043e-05,-1.4088042e-05,6
5.554431e-06,-4.3912263e-05,-0.00010054169,-0.00016859925,-2.8302658e-05,5.013042e-07,-6.978751e-05,0.00015119782,0.0004819211,-1.3595788e-05,-9.916167e-06,-1.7438253e-05,6
2.3579432e-06,-5.397534e-05,-6.764325e-05,-0.00015701767,-2.8481774e-05,3.186389e-06,-4.0415205e-05,0.00017319137,0.00042888045,2.2156099e-05,-1.0755083e-05,-1.6088687e-05,6
8.561017e-06,-3.164351e-05,-3.6423284e-05,-0.00014006488,-2.7833506e-05,4.696528e-06,-6.343129e-06,0.00011243523,0.00036039765,5.2201114e-05,-9.7476595e-06,-1.2053534e-05,6
2.9199127e-05,6.466139e-06,-7.217517e-06,-0.00013419017,-2.2756598e-05,7.3816104e-06,2.3029166e-05,5.671457e-05,0.00029930024,7.553216e-05,-8.572384e-06,-9.361177e-06,6
4.7151654e-05,3.4672685e-05,1.7959868e-05,-0.00012898684,-1.7252902e-05,8.7239e-06,2.1685053e-05,3.5738714e-05,0.00023014605,9.114214e-05,-8.572054e-06,-7.17237e-06,6
4.8990656e-05,5.012268e-05,3.8773174e-05,-0.000111026966,-1.439398e-05,7.5484504e-06,-5.0042963e-06,4.111518e-05,0.00014924242,8.039978e-05,-1.0418064e-05,-4.1443177e-06,6
3.8408823e-05,6.825827e-05,5.55581e-05,-8.652099e-05,-1.1346473e-05,6.205154e-06,-3.18615e-05,3.306371e-05,7.572416e-05,6.0090028e-05,-1.2264075e-05,-1.4519661e-06,6
2.1280866e-05,8.773663e-05,6.9489586e-05,-9.357066e-05,-4.6755576e-06,7.2117437e-06,-3.421271e-05,-9.9004055e-06,1.6976634e-05,6.0593575e-05,-1.3774386e-05,-7.7380685e-07,6
1.2994789e-06,9.2108574e-05,8.358892e-05,-0.0001915946,4.41961e-06,7.546937e-06,-1.927545e-05,-4.5311303e-05,-3.1867792e-05,5.8579386e-05,-1.6627493e-05,-7.6704646e-07,6
-9.2823475e-06,4.3440155e-05,9.9870296e-05,-0.00032251704,1.0964233e-05,6.20364e-06,-8.198726e-06,-9.050578e-06,-7.41661e-05,2.4841687e-05,-1.8809198e-05,-1.2638359e-06,6
2.1240783e-06,-5.021186e-05,0.00011346609,-0.00033393077,1.3451148e-05,3.8532444e-06,-5.5144633e-06,5.3898177e-05,-0.000103707855,-2.4673838e-05,-1.813747e-05,-3.2712696e-06,6
2.4105011e-05,-8.66273e-05,0.00012991531,-0.00018958045,1.6346828e-05,1.8385489e-06,1.1981782e-06,5.2224972e-05,-0.00012133233,-5.018692e-05,-1.5451547e-05,-8.9713885e-06,6
3.7022088e-05,-4.230725e-05,0.00015609979,3.768742e-05,1.9842932e-05,6.6310105e-07,2.0667363e-05,-1.642008e-05,-0.00013056432,-2.5345234e-05,-1.259778e-05,-1.1985921e-05,6
3.5168436e-05,1.510504e-05,0.00018110932,0.00016827411,2.2188455e-05,1.8375392e-06,3.5772468e-05,-4.8138296e-05,-0.0001230114,2.9205767e-05,-1.125465e-05,-1.1139924e-05,6
3.448973e-05,4.5157896e-05,0.00019705501,0.000112548165,2.5914302e-05,5.8654164e-06,3.979952e-05,3.5645555e-06,-9.682721e-05,7.956054e-05,-9.240126e-06,-8.447586e-06,6
3.7000165e-05,4.4830038e-05,0.00022340733,-4.8419264e-05,3.2082007e-05,1.2075334e-05,4.1812382e-05,7.4905765e-05,-7.651774e-05,0.00010322729,-4.7078634e-06,-5.251703e-06,6
4.4042532e-05,3.8795304e-05,0.00026066985,-0.00013956141,3.798065e-05,1.6942457e-05,4.181105e-05,9.9920595e-05,-0.00010219897,0.00010289159,2.6778387e-06,-8.808764e-07,6
7.206606e-05,5.558806e-05,0.00027644768,-2.9452323e-05,4.134596e-05,1.8788292e-05,4.0131228e-05,8.968707e-05,-0.00015591101,0.00010457008,9.727843e-06,6.3651e-07,6
0.00011167119,8.110898e-05,0.00024740977,0.00020922927,4.1980456e-05,1.9291336e-05,3.7612153e-05,7.005399e-05,-0.00019753791,0.00011631952,1.375656e-05,-2.0423352e-06,6
0.00012727387,9.152346e-05,0.00016633859,0.00042071933,4.168554e-05,2.0801474e-05,3.7946516e-05,4.756748e-05,-0.00022993311,0.00011195544,1.3924745e-05,-1.0931604e-05,6
9.604663e-05,9.304193e-05,5.8411533e-05,0.00052310736,4.3343403e-05,2.2143762e-05,4.6505498e-05,6.0329305e-05,-0.00024487198,9.3324175e-05,1.2414438e-05,-2.6702694e-05,6
4.652382e-05,8.650363e-05,-2.4673838e-05,0.00046184234,4.6350684e-05,2.4996694e-05,5.5903718e-05,0.00013150266,-0.00022993369,5.270466e-05,1.1743378e-05,-3.87811e-05,6
2.0332058e-05,3.6828078e-05,-7.4692914e-05,0.00026327668,4.57176e-05,2.466049e-05,5.657378e-05,0.00024094565,-0.00018562179,-2.4170291e-05,1.07366195e-05,-3.9445764e-05,6
1.4953606e-05,-5.2459905e-05,-0.00011161975,0.000101805694,3.845995e-05,1.7946017e-05,4.7844285e-05,0.0003319252,-9.901185e-05,-0.00011027695,1.0569108e-05,-3.507495e-05,6
8.903761e-06,-8.568624e-05,-0.00013696498,7.981743e-05,2.6222195e-05,1.2406485e-05,3.5086403e-05,0.0003003748,5.557933e-06,-0.00018245212,9.7302e-06,-3.0368441e-05,6
-7.88843e-06,-5.3787073e-05,-0.00015307851,0.00011473006,1.0629895e-05,8.5454485e-06,1.561455e-05,0.00011389961,6.497627e-05,-0.00022877852,7.0449505e-06,-2.4654839e-05,6
-3.340878e-05,-4.0854873e-05,-0.0001643244,9.811296e-05,-3.678329e-06,2.6702207e-06,-7.885682e-06,-3.9005772e-05,4.7519672e-05,-0.00024069581,4.359701e-06,-1.60878e-05,6
-7.134997e-05,-6.7870795e-05,-0.00016264591,-1.2538062e-06,-1.5726348e-05,-8.240486e-06,-2.567904e-05,-6.719917e-05,-7.7030145e-06,-0.00021098649,2.849397e-06,-7.856462e-06,6
-0.00012641177,-0.00010277563,-0.00015274281,-0.00017984542,-3.201918e-05,-2.2676026e-05,-3.9444018e-05,-8.901429e-05,-6.19186e-05,-0.00013679713,1.5069425e-06,1.2141196e-06,6
-0.00015008578,-0.00012760953,-0.00015996033,-0.00041248449,-5.0841227e-05,-3.2747485e-05,-5.5223187e-05,-0.00014809195,-8.10537e-05,-5.6397344e-05,6.680352e-07,1.1963194e-05,6
-0.000120719415,-0.00011954497,-0.00018664835,-0.0005318253,-6.087077e-05,-3.6608526e-05,-6.949172e-05,-0.00019390952,3.7098807e-06,-1.0070954e-06,-3.3871868e-07,2.4055058e-05,6
-7.5575204e-05,-7.7071316e-05,-0.00021383993,-0.00044437588,-6.0570506e-05,-3.7280428e-05,-7.570348e-05,-0.0002179067,0.00019774331,4.0619514e-05,-4.5346114e-06,3.5811223e-05,6
-6.500795e-05,-3.2919175e-05,-0.0002205539,-0.0002473209,-5.6368557e-05,-3.761663e-05,-7.369064e-05,-0.00025936015,0.00035736765,7.301442e-05,-8.3948025e-06,4.6895984e-05,6
-8.247151e-05,1.1065112e-05,-0.00020393683,-5.8994076e-05,-5.43283e-05,-4.0134873e-05,-6.882435e-05,-0.00031474518,0.00032144765,8.258183e-05,-9.905104e-06,6.016279e-05,6
-9.254971e-05,4.1957155e-05,-0.00017842374,7.39425e-05,-5.3867767e-05,-4.6177953e-05,-6.2950974e-05,-0.00033773523,0.00014654845,5.9250782e-05,-8.561969e-06,6.839411e-05,6
-0.00010732767,4.702405e-06,-0.00014686809,0.00014779615,-5.467554e-05,-5.3395976e-05,-4.4488905e-05,-0.00025884082,2.3178982e-05,2.2156099e-05,-5.0367926e-06,7.007931e-05,6
-0.00012999454,-7.652885e-05,-0.00010624857,0.00016424534,-5.2663047e-05,-5.5914217e-05,-4.877833e-06,-8.846857e-05,2.2507304e-05,-4.1962307e-06,-2.1830124e-06,6.672904e-05,6
-0.0001120419,-0.00010690179,-6.193637e-05,0.00012765419,-4.631543e-05,-5.2222043e-05,3.7083126e-05,5.7397676e-05,7.823297e-05,-5.5390246e-06,-1.5112738e-06,6.0189624e-05,6
-6.303714e-05,-6.577095e-05,-1.3931487e-05,7.25996e-05,-3.8719943e-05,-4.8529862e-05,4.2452957e-05,9.718321e-05,0.00011801296,1.5274281e-05,-3.357272e-06,5.2139563e-05,6
-2.7124624e-05,-1.6919059e-05,4.2633706e-05,2.963017e-05,-3.2538395e-05,-4.785897e-05,7.3711144e-06,1.0578274e-05,0.000111634414,5.471885e-05,-6.3782154e-06,4.173961e-05,6
-2.1089263e-05,-1.0700872e-05,8.711375e-05,9.2792027e-07,-2.5492858e-05,-4.9705817e-05,-3.0060617e-05,-0.00013729164,8.56175e-05,0.00010037384,-8.056365e-06,2.9661163e-05,6
-3.3853015e-05,-2.1603311e-05,8.912795e-05,-2.0053261e-05,-1.8242294e-05,-4.5510096e-05,-3.5936693e-05,-0.00020845447,6.631456e-05,0.0001223621,-8.05602e-06,1.8086263e-05,6
-3.1174633e-05,-4.1392327e-06,6.0425726e-05,-3.2474138e-05,-1.3417396e-05,-3.3929e-05,-1.3278397e-05,-0.00013560262,3.626927e-05,0.00011313039,-7.216428e-06,7.686304e-06,6
-1.087208e-05,3.8670078e-05,4.1123065e-05,-2.9117184e-05,-9.700596e-06,-2.2012213e-05,7.869254e-06,-3.9587598e-05,-2.3363318e-06,9.550621e-05,-6.0411403e-06,-5.3992435e-06,6
-2.3189657e-06,6.78836e-05,4.8004884e-05,-1.669637e-05,-7.678272e-06,-1.6809394e-05,1.4896278e-06,-8.5405176e-05,-2.2478516e-05,8.274968e-05,-4.362303e-06,-1.5463507e-05,6
-2.0286028e-05,6.587715e-05,6.227207e-05,-1.3675117e-05,-7.715042e-06,-1.5299254e-05,-3.1410178e-05,-0.00024536025,-2.2310942e-05,5.690089e-05,-1.0049727e-06,-1.747101e-05,6
-5.973779e-05,5.5813947e-05,6.61326e-05,-3.331351e-05,-8.009883e-06,-1.3285572e-05,-7.068826e-05,-0.0003507643,-1.7779288e-05,1.9134814e-05,2.3523583e-06,-1.4443037e-05,6
-8.156538e-05,8.5531006e-05,6.1264975e-05,-6.940113e-05,-6.0164925e-06,-8.2505985e-06,-9.049582e-05,-0.0003069504,-1.375118e-05,-7.5532157e-06,4.1990465e-06,-9.904424e-06,6
-4.5149278e-05,0.00015620327,5.287251e-05,-9.7096294e-05,-3.00899e-06,-3.6219052e-07,-8.562955e-05,-0.00015000609,-2.399026e-05,-2.3331044e-05,4.367243e-06,-7.715702e-06,6
2.7522265e-05,0.0001572181,4.0955216e-05,-0.00010297105,-6.2085667e-07,5.8477244e-06,-7.169942e-05,5.6371753e-08,-5.1182113e-05,-3.30663e-05,2.521247e-06,-6.03053e-06,6
8.6933724e-05,4.1745556e-05,2.6688029e-05,-9.071809e-05,3.4604747e-07,7.86141e-06,-5.4580156e-05,2.7588902e-05,-6.125333e-05,-1.8966964e-05,1.8501985e-06,-4.0096616e-06,6
9.901169e-05,-7.809107e-05,1.6617074e-05,-9.1893075e-05,-6.4559316e-07,7.3573556e-06,-3.225757e-05,-2.3767712e-05,-3.5236975e-05,1.762417e-05,1.6826972e-06,-3.3315891e-06,6
6.6441775e-05,-0.00011198889,1.6952774e-05,-0.0001402337,1.3861019e-06,8.867492e-06,-1.8782171e-06,-2.7455144e-05,-8.2815336e-07,4.5487144e-05,2.5222903e-06,-4.332012e-06,6
2.2793807e-05,-9.3182054e-05,2.4673838e-05,-0.00020452,5.7092298e-06,1.6588052e-05,2.8333287e-05,1.9380046e-05,-3.1783145e-06,3.743038e-05,6.0474736e-06,-6.8430795e-06,6
