emg1,emg2,emg3,emg4,emg5,emg6,emg7,emg8,emg9,emg10,emg11,emg12,label
4.256038e-06,2.7549686e-06,-5.06054e-07,5.575879e-06,3.5541543e-06,1.3162851e-07,8.3925415e-06,4.498616e-05,4.5737423e-07,-3.301828e-06,-2.185149e-06,-4.6966898e-07,5
4.927593e-06,1.2439788e-06,1.3402876e-06,6.0792763e-06,2.4273993e-06,4.6747604e-07,9.7347975e-06,5.388626e-05,-5.4930223e-07,-4.6446225e-06,1.0038028e-06,-1.8124222e-06,5
5.9348454e-06,2.365373e-07,3.0187798e-06,7.4219183e-06,3.6192093e-06,4.6762568e-07,1.0237808e-05,5.8422283e-05,-1.5559802e-06,-5.14817e-06,2.010715e-06,-4.497969e-06,5
5.5993023e-06,9.075901e-07,5.032971e-06,9.2681075e-06,4.7099475e-06,1.3207739e-07,7.8873845e-06,5.8090678e-05,-7.1631564e-07,-5.651718e-06,2.0105313e-06,-3.82653e-06,5
6.7744027e-06,9.072453e-07,5.872217e-06,9.603654e-06,4.644797e-06,-8.748678e-07,5.2012597e-06,5.188435e-05,7.947445e-07,-5.651718e-06,2.1781968e-06,-3.155092e-06,5
6.9424063e-06,9.069008e-07,3.0187798e-06,6.4143655e-06,5.1277802e-06,-2.55321e-06,3.5222304e-06,3.7453417e-05,2.4736537e-06,-5.3160193e-06,3.3529586e-06,-3.4907478e-06,5
4.2569723e-06,-6.040863e-07,-4.3665864e-06,2.2179804e-06,4.171221e-06,-1.8816639e-06,3.857393e-06,1.546927e-05,3.4811649e-06,-6.658813e-06,4.3598707e-06,-1.8122128e-06,5
1.5715367e-06,-2.7864712e-06,-1.0912707e-05,1.0428823e-06,1.1412003e-06,-5.387189e-07,5.0318054e-06,-1.406809e-05,2.1387862e-06,-7.665908e-06,1.8419496e-06,-4.6937575e-07,5
-7.7820073e-07,-3.9617585e-06,-1.1584105e-05,2.5533705e-06,-1.5641644e-06,-8.7426776e-07,5.534818e-06,-4.1759107e-05,7.964078e-07,-7.1623613e-06,-2.858012e-06,-1.8121265e-06,5
-2.120844e-06,-3.2907046e-06,-9.234214e-06,3.7281593e-06,-1.2348198e-06,-1.2098155e-06,4.0236387e-06,-5.367229e-05,1.8039177e-06,-7.4980594e-06,-4.0331406e-06,-4.4976705e-06,5
-3.2956402e-06,-1.9482545e-06,-7.723571e-06,2.7209082e-06,-3.679758e-08,-2.025702e-07,1.3375201e-06,-4.4268618e-05,3.1471257e-06,-6.155265e-06,-1.3477338e-06,-4.4976264e-06,5
-5.6453796e-06,-2.1164458e-06,-6.7164756e-06,7.0655994e-07,-8.571621e-07,1.3327819e-07,-1.1807534e-06,-1.8751418e-05,3.818936e-06,-3.9732254e-06,6.66275e-07,-2.8190896e-06,5
-6.1487794e-06,-2.2846368e-06,-5.037983e-06,-4.6854004e-07,-3.099522e-06,-1.3772153e-06,-3.3633276e-06,5.255143e-06,3.1479524e-06,-2.9661298e-06,1.6254613e-07,-1.8119497e-06,5
-4.973688e-06,-1.7814316e-06,-1.177451e-06,3.7054747e-07,-3.9234214e-06,-2.5520078e-06,-4.8745023e-06,1.3483879e-05,2.4769683e-06,-4.476773e-06,3.3021342e-07,-1.3083577e-06,5
-1.1130102e-06,-7.7467604e-07,2.8509307e-06,1.8810334e-06,-1.9998336e-06,-2.04831e-06,-6.7213755e-06,1.7385586e-06,1.470285e-06,-5.651718e-06,1.0014279e-06,-1.3083122e-06,5
2.579819e-06,-9.4286605e-07,5.032971e-06,2.5522718e-06,-2.3951273e-07,-3.3968355e-08,-9.575346e-06,-3.0484367e-05,1.1349975e-06,-4.6446225e-06,-1.0129444e-06,-6.3686844e-07,5
7.3362247e-07,-2.6216997e-06,6.040066e-06,1.2093187e-06,-2.6778577e-07,1.1411274e-06,-9.240179e-06,-6.388223e-05,1.4711078e-06,-3.301828e-06,-2.1880705e-06,5.3812266e-07,5
-3.798164e-06,-2.118493e-06,6.7114634e-06,5.37761e-07,-9.791354e-07,1.1412784e-06,-4.5409315e-06,-7.4452604e-05,1.3036683e-06,-3.4696775e-06,3.2948856e-07,1.3774152e-06,5
-3.7980215e-06,2.3105599e-07,7.3828605e-06,8.7329977e-07,-3.232596e-06,2.1485234e-06,-1.7738249e-07,-5.2124517e-05,1.3040785e-06,-5.3160193e-06,2.0077998e-06,8.7391396e-07,5
-1.2801419e-06,2.3071638e-07,8.389956e-06,3.6959102e-07,-5.6697327e-06,1.8129764e-06,-1.0171591e-06,-1.6872036e-05,2.4794333e-06,-6.490964e-06,1.0005233e-06,1.2096591e-06,5
-4.4075412e-07,-4.410189e-07,8.222107e-06,-1.1412133e-06,-5.8583996e-06,1.4774296e-06,-4.542523e-06,5.456054e-06,4.494033e-06,-4.6446225e-06,-8.45999e-07,1.5454057e-06,5
-2.6226542e-06,1.2371341e-06,9.900599e-06,-2.819868e-06,-5.210425e-06,8.0618486e-07,-4.5430534e-06,7.3065416e-06,5.165839e-06,-2.1268836e-06,-1.3497262e-06,1.2097546e-06,5
-4.636707e-06,2.5795907e-06,1.07398455e-05,-3.3235776e-06,-4.3371533e-06,-2.0075984e-07,-1.1865977e-06,1.4359669e-06,6.0054927e-06,3.908549e-07,1.1678319e-06,2.2168979e-06,5
-4.468718e-06,3.9220445e-06,4.1937246e-06,-2.4844944e-06,-5.554275e-06,-2.8861955e-06,2.841255e-06,6.139897e-06,6.1737496e-06,1.062252e-06,2.0068992e-06,3.3918925e-06,5
-4.9721302e-06,4.9288024e-06,-3.6951894e-06,-4.7046595e-07,-6.526012e-06,-4.228838e-06,5.3584654e-06,2.4103918e-05,7.013403e-06,-1.126928e-07,2.5102665e-06,2.7205433e-06,5
-3.125653e-06,3.921369e-06,-3.6951894e-06,2.886354e-06,-6.3363946e-06,-1.5431003e-06,8.211375e-06,4.0893e-05,6.6781113e-06,-7.840898e-07,3.3493343e-06,8.7425167e-07,5
7.350164e-07,1.9068409e-06,1.2754036e-05,5.0682306e-06,-5.5911128e-06,4.7124226e-07,1.4253416e-05,3.9554365e-05,5.5035725e-06,-6.162405e-07,2.0063612e-06,-1.4755888e-06,5
1.9100949e-06,2.2422041e-06,3.9777762e-05,6.5787076e-06,-5.0103267e-06,1.814188e-06,2.1302558e-05,1.2199101e-05,3.8254852e-06,-3.6375266e-06,-8.0077545e-09,-3.993277e-06,5
2.9173234e-06,3.0811136e-06,5.6898385e-05,7.921336e-06,-4.6250134e-06,2.485738e-06,2.7008906e-05,-1.5324009e-05,2.483097e-06,-5.987416e-06,-1.6866795e-06,-4.496774e-06,5
5.938743e-06,3.2486266e-06,5.6730536e-05,7.753321e-06,-3.2661787e-06,2.8215886e-06,2.835117e-05,-1.800543e-05,3.1548982e-06,-4.6446225e-06,-2.022556e-06,-2.4825329e-06,5
1.1981447e-05,3.583989e-06,4.514894e-05,6.7460583e-06,-4.9810774e-07,4.8359307e-06,2.6000756e-05,6.840428e-06,4.498096e-06,-4.483912e-07,3.2715465e-07,3.5257397e-08,5
1.7688451e-05,3.9193515e-06,2.8867562e-05,7.417288e-06,2.9633675e-06,6.178878e-06,2.0629053e-05,4.5617777e-05,3.4914044e-06,3.5799906e-06,3.8518106e-06,3.2244448e-06,5
1.8695677e-05,3.5833184e-06,5.872217e-06,7.920668e-06,2.7748795e-06,6.1790297e-06,1.4250256e-05,7.734545e-05,2.316863e-06,5.0906337e-06,4.1873304e-06,3.3923457e-06,5
1.6513766e-05,2.240191e-06,-2.8536877e-05,6.5777053e-06,1.8163626e-06,2.822197e-06,9.2142545e-06,7.1978466e-05,-7.04021e-07,3.915689e-06,1.5015659e-06,3.541267e-08,5
1.2149814e-05,1.4006096e-06,-6.563155e-05,1.8777585e-06,-8.764611e-07,-2.2131287e-06,2.3319103e-06,4.613386e-05,-3.557056e-06,1.3979504e-06,-1.6877476e-06,-3.153671e-06,5
1.2397414e-06,-7.817634e-07,-9.097679e-05,-5.507777e-06,-3.916635e-06,-5.0664144e-06,-6.5646236e-06,4.781654e-05,-2.7174085e-06,-9.5193883e-07,-3.534266e-06,-3.8250146e-06,5
-1.2859468e-05,-1.1177959e-06,-9.450162e-05,-1.0879123e-05,-5.939393e-06,-5.0662616e-06,-1.6132553e-05,7.098392e-05,-2.0456105e-06,-9.5193883e-07,-3.366594e-06,-1.8107709e-06,5
-2.2426751e-05,5.6036384e-07,-7.570251e-05,-1.02078975e-05,-6.251333e-06,-4.394711e-06,-2.2343502e-05,7.216305e-05,-2.884456e-06,-2.805419e-07,-2.023977e-06,5.391726e-07,5
-2.0412435e-05,5.763356e-06,-4.7000292e-05,-6.1796877e-06,-5.5594437e-06,-5.2338055e-06,-2.351897e-05,4.9171897e-05,-8.698652e-07,-7.840898e-07,3.257353e-07,8.7492447e-07,5
-1.0509207e-05,1.0294953e-05,-1.6619582e-05,-3.662119e-06,-4.9501755e-06,-5.233653e-06,-2.419089e-05,1.5438396e-05,1.4804235e-06,1.062252e-06,2.8432958e-06,2.0358169e-07,5
-4.130812e-06,1.1301718e-05,1.2754036e-05,-5.0050853e-06,-3.5923092e-06,-3.7228563e-06,-2.5366357e-05,-4.11226e-05,1.8165206e-06,3.4121413e-06,2.0038744e-06,3.578726e-08,5
-3.9628417e-06,1.02942895e-05,1.5775322e-05,-8.530092e-06,-2.1705118e-06,-2.5477584e-06,-2.4024086e-05,-0.00012605012,2.488316e-06,5.0906337e-06,-1.04916e-08,3.5842177e-08,5
-6.144761e-06,5.25848e-06,-2.5012043e-05,-1.0880154e-05,-2.7610172e-06,-2.2119075e-06,-2.352106e-05,-0.00020493506,2.488714e-06,8.11192e-06,-5.142165e-07,3.7159543e-07,5
-7.823133e-06,-4.477106e-06,-7.150628e-05,-1.0208932e-05,-2.2866607e-06,-7.011104e-07,-2.7046415e-05,-0.0002272548,1.1463169e-06,1.1804604e-05,9.962508e-07,2.217992e-06,5
-9.165808e-06,-1.471624e-05,-7.587036e-05,-6.684272e-06,2.4527262e-08,1.1453836e-06,-3.275381e-05,-0.00016984616,2.153809e-06,1.5665135e-05,2.0031714e-06,4.903637e-06,5
-9.333538e-06,-1.8073555e-05,-3.659364e-05,-3.495311e-06,1.7994441e-06,1.9847819e-06,-3.6447014e-05,-9.06171e-05,5.67904e-06,2.2211256e-05,6.602021e-07,3.2252015e-06,5
-9.83697e-06,-1.5556147e-05,1.5775322e-05,-3.1597883e-06,2.2147992e-06,1.3859405e-07,-4.014022e-05,-5.4693148e-05,8.365023e-06,2.8589528e-05,-6.82768e-07,-6.35275e-07,5
-1.1347496e-05,-1.0688848e-05,5.6730536e-05,-5.677701e-06,2.3621658e-06,-2.7146887e-06,-4.232278e-05,-5.3681837e-05,5.5119813e-06,3.278576e-05,-2.0257348e-06,-6.35218e-07,5
-1.2690175e-05,-6.996494e-06,7.989373e-05,-6.3492766e-06,1.8357442e-06,-5.903671e-06,-3.829492e-05,-3.806764e-05,1.8196931e-06,3.42964e-05,-2.6973075e-06,5.397844e-07,5
-1.30257595e-05,-4.6469336e-06,7.9558034e-05,-5.6780545e-06,8.6232717e-07,-7.2463117e-06,-2.9231578e-05,1.2291353e-05,1.4843893e-06,3.228221e-05,-2.529633e-06,2.0414312e-07,5
-1.017221e-05,-2.6330708e-06,5.0352264e-05,-4.671138e-06,-1.5303016e-06,-5.2319683e-06,-1.6307707e-05,6.18111e-05,2.156179e-06,2.6239639e-05,-1.1870133e-06,-8.028948e-07,5
-5.8080154e-06,-1.122756e-06,1.6950265e-05,-4.167767e-06,-2.3337236e-06,-1.5391316e-06,-3.8873823e-06,8.145369e-05,4.7807987e-07,1.935782e-05,3.2345673e-07,-9.706854e-07,5
-9.4027575e-07,-1.1230837e-06,3.0187798e-06,-1.4823587e-06,-2.9716676e-07,1.818007e-06,5.3438084e-06,8.54863e-05,-1.929235e-07,1.6504382e-05,6.589809e-07,-8.027776e-07,5
3.591763e-06,-1.962658e-06,6.8793124e-06,1.8744471e-06,2.7924733e-07,3.3288047e-06,1.0210917e-05,9.170095e-05,1.821659e-06,1.5329437e-05,-8.518367e-07,-2.991695e-07,5
4.934668e-06,-1.9629852e-06,1.409683e-05,2.7135136e-06,-8.18677e-07,1.9861636e-06,1.2224592e-05,9.623711e-05,2.829146e-06,1.3818793e-05,-2.1948042e-06,3.6587963e-08,5
2.3499693e-07,-1.9633117e-06,1.3089734e-05,3.0490314e-06,-2.4461087e-06,4.7567457e-07,1.2559773e-05,9.5569965e-05,1.4394936e-07,9.790412e-06,-6.8433434e-07,5.401958e-07,5
-6.143165e-06,-3.47428e-06,4.0258756e-06,2.3774537e-06,-1.7594916e-06,8.1152854e-07,1.188786e-05,9.389571e-05,-3.380494e-06,2.7407443e-06,-1.3108345e-08,5.4025594e-07,5
-7.82155e-06,-4.8174006e-06,-4.3665864e-06,5.309304e-07,1.8466425e-06,4.759826e-07,1.1215943e-05,8.1814804e-05,-5.562144e-06,-1.2876374e-06,-5.1683014e-07,7.081655e-07,5
-4.4644585e-06,-2.2999873e-06,-5.3736817e-06,-1.4834413e-06,4.9742193e-06,-6.988063e-07,1.0544031e-05,4.6906403e-05,-4.5546594e-06,-1.623336e-06,1.5439528e-07,1.5474724e-06,5
-7.716703e-07,2.9030145e-06,-3.6951894e-06,-1.6514726e-06,3.778576e-06,-2.544994e-06,8.529327e-06,-4.4512144e-06,-2.8757775e-06,-4.9803207e-06,9.934679e-07,8.7613654e-07,5
3.928212e-06,4.91688e-06,-3.191642e-06,-1.4101253e-07,1.3074485e-06,-1.8734438e-06,5.5075243e-06,-5.12769e-05,-3.2110881e-06,-1.2197837e-05,6.5759775e-07,8.761981e-07,5
8.963792e-06,2.5666673e-06,-2.3523958e-06,-1.4119591e-07,1.6373992e-06,-1.947964e-07,7.017651e-06,-7.1582406e-05,-4.2177953e-06,-1.7401164e-05,-1.818202e-07,1.715506e-06,5
1.2656579e-05,1.8949443e-06,1.0045891e-06,-3.0922882e-07,3.8014562e-06,-6.9818896e-07,1.08776685e-05,-6.754977e-05,-5.728051e-06,-2.0086753e-05,4.8940507e-07,2.7226633e-06,5
1.2320982e-05,4.9159075e-06,5.704368e-06,1.2012298e-06,4.462075e-06,-2.5443765e-06,1.2723498e-05,-5.613177e-05,-7.0704577e-06,-2.2100943e-05,2.6712726e-06,4.233369e-06,5
1.0978289e-05,8.943966e-06,1.07398455e-05,3.2152348e-06,4.1508e-06,-2.712071e-06,1.0708792e-05,-4.2867418e-05,-1.0259208e-05,-2.3779436e-05,2.8389502e-06,4.736981e-06,5
8.796348e-06,1.3643423e-05,1.3089734e-05,4.0542955e-06,5.180005e-06,-1.8726713e-06,6.1763503e-06,-2.8595969e-05,-1.3951505e-05,-2.3443736e-05,3.2104208e-07,2.890702e-06,5
6.278709e-06,1.7671482e-05,1.0236297e-05,3.0470142e-06,4.276838e-06,-5.2972155e-07,2.1474557e-06,-1.650656e-05,-1.2608325e-05,-1.6897617e-05,-1.5254708e-06,1.3801229e-06,5
4.2646166e-06,1.6160517e-05,3.5223277e-06,1.0326377e-06,1.6060346e-06,8.1322725e-07,-5.3864494e-07,-2.6069698e-05,-6.0618195e-06,-1.0183648e-05,-1.0220945e-06,1.2123368e-06,5
1.9148238e-06,9.614075e-06,-3.6951894e-06,1.5359986e-06,-1.5955898e-07,1.4847781e-06,-3.896142e-06,-6.1649465e-05,1.4898552e-07,-6.658813e-06,-5.1871694e-07,1.8837982e-06,5
9.0782487e-07,1.5569887e-06,-4.702285e-06,1.871509e-06,-1.5902261e-06,1.484933e-06,-4.568051e-06,-7.6583776e-05,4.1777507e-06,-6.9945113e-06,-1.0224352e-06,2.55526e-06,5
2.0828643e-06,-7.1714926e-06,-1.5131494e-06,1.0320748e-06,-9.489355e-07,1.1493901e-06,6.347668e-07,-4.049192e-05,8.206516e-06,-8.673003e-06,-3.5120829e-07,2.7231738e-06,5
2.5865065e-06,-1.4053631e-05,-2.0166972e-06,1.1997352e-06,1.8853208e-07,8.138471e-07,6.8446748e-06,1.27205685e-05,1.1060335e-05,-8.001607e-06,9.914158e-07,2.8910893e-06,5
5.104339e-06,-1.3886102e-05,-3.0237927e-06,2.878038e-06,1.4599166e-06,9.818513e-07,1.1543945e-05,3.7902235e-05,8.542979e-06,-6.155265e-06,-1.5847753e-08,2.723305e-06,5
5.9436775e-06,-6.8367544e-06,-1.0096018e-06,3.2135463e-06,2.799776e-08,8.141575e-07,1.3389776e-05,3.6228023e-05,3.6757324e-06,-5.3160193e-06,-1.8623591e-06,2.219823e-06,5
3.9295783e-06,-1.2980497e-06,2.1795338e-06,8.6346694e-07,-4.9572736e-07,1.8214067e-06,1.1878624e-05,2.8175546e-05,-1.5272134e-06,-5.651718e-06,-1.0232834e-06,1.5484935e-06,5
3.258272e-06,-4.591218e-07,5.3686695e-06,-8.152169e-07,4.890495e-07,4.003602e-06,8.185431e-06,1.777318e-05,-4.380269e-06,-3.301828e-06,9.907386e-07,2.0576634e-07,5
3.0905128e-06,-2.1379335e-06,7.718559e-06,-1.8225022e-06,2.3687503e-06,4.3394575e-06,5.4993334e-06,-5.3857257e-06,-3.372794e-06,5.587042e-07,1.3262679e-06,8.772305e-07,5
1.7478077e-06,-4.82384e-06,4.0258756e-06,-3.1205104e-07,5.0110125e-06,5.178858e-06,4.8274287e-06,-4.365106e-05,-8.5467565e-07,1.2301012e-06,1.9974973e-06,2.55579e-06,5
2.9228397e-06,-4.4884587e-06,-6.045079e-06,2.5411935e-06,8.907822e-06,6.1861106e-06,3.4841246e-06,-7.872726e-05,-1.828998e-07,-9.5193883e-07,2.668725e-06,2.5558577e-06,5
6.78346e-06,-2.8102845e-06,-1.8465924e-05,4.7230405e-06,1.0273613e-05,6.354115e-06,-2.2232553e-06,-8.812252e-05,-3.503705e-07,-1.4554867e-06,3.339955e-06,1.213132e-06,5
7.2870935e-06,-2.8106017e-06,-2.5347743e-05,6.5691884e-06,8.163411e-06,5.515023e-06,-7.4270906e-06,-7.2172545e-05,-3.4999272e-07,-1.7911851e-06,1.661295e-06,-6.3314053e-07,5
4.601591e-06,-3.1466166e-06,-2.2662154e-05,8.247487e-06,6.058148e-06,3.3331396e-06,-7.763296e-06,-4.7997946e-05,-3.8744497e-06,-2.6304313e-06,-6.8876375e-07,-1.4723187e-06,5
-1.1051995e-06,-2.475536e-06,-1.9473018e-05,6.5688e-06,5.607132e-06,2.1583496e-06,-5.413912e-06,-4.1111827e-05,-8.238155e-06,-2.7982803e-06,-3.5323225e-07,2.0624356e-07,5
-7.1476884e-06,-3.1472491e-06,-2.1487209e-05,3.8830167e-06,6.7964825e-06,3.5013004e-06,-2.5609802e-06,-5.8395988e-05,-9.580571e-06,-2.1268836e-06,-1.7699527e-08,-2.972339e-07,5
-9.497495e-06,-7.175947e-06,-2.3501401e-05,1.8686312e-06,8.555071e-06,5.1799484e-06,-2.8971838e-06,-8.8101e-05,-9.244497e-06,1.9014981e-06,1.4998243e-07,-1.807808e-06,5
-9.833111e-06,-9.526151e-06,-1.9976567e-05,2.2041331e-06,1.05095105e-05,4.8444062e-06,-6.254676e-06,-0.000104545914,-6.222837e-06,7.7762215e-06,9.890606e-07,-3.6540791e-06,5
-1.0000881e-05,-8.519371e-06,-9.402063e-06,3.8824287e-06,1.0488765e-05,4.1731664e-06,-8.6050695e-06,-5.552962e-05,-1.1869845e-06,8.783317e-06,9.888939e-07,-4.1575568e-06,5
-7.8187595e-06,-5.1627003e-06,3.0187798e-06,4.7214785e-06,9.8619985e-06,2.4948297e-06,-7.934178e-06,4.770198e-05,2.170374e-06,4.587086e-06,6.530296e-07,-1.9754452e-06,5
-7.147285e-06,-1.4703315e-06,1.3761131e-05,3.714185e-06,7.843544e-06,-1.9060202e-07,-6.7597366e-06,0.0001346522,-1.1862371e-06,5.5156498e-08,6.528634e-07,1.7173091e-06,5
-1.0672041e-05,-1.1349463e-06,2.0139403e-05,1.6997966e-06,6.147984e-06,-1.8689387e-06,-6.424542e-06,0.0001836685,-6.0534912e-06,-2.6304313e-06,-8.579466e-07,5.577913e-06,5
-1.3189702e-05,-3.8208477e-06,2.0810798e-05,1.8895396e-07,3.785111e-06,-2.7080273e-06,-5.9214963e-06,0.00019340808,-7.3959127e-06,-4.9803207e-06,-8.5811234e-07,8.93497e-06,5
-1.0504039e-05,-6.0032007e-06,1.661457e-05,-3.1682303e-06,1.4602945e-06,-3.8828157e-06,-5.586301e-06,0.00013802217,-5.5492e-06,-9.8479495e-06,9.880641e-07,1.1284931e-05,5
-7.4826767e-06,-6.6749103e-06,1.3761131e-05,-8.203907e-06,4.769274e-07,-4.5540564e-06,-5.2511054e-06,1.0964606e-05,-5.045282e-06,-1.5722671e-05,1.1557478e-06,1.1285004e-05,5
-4.6291666e-06,-5.8359765e-06,1.8460909e-05,-1.37431325e-05,-2.9457528e-06,-6.568092e-06,-4.0766636e-06,-0.00010065081,-4.541363e-06,-1.8240411e-05,-6.907593e-07,1.061368e-05,5
-1.7756552e-06,-3.6542483e-06,1.7789513e-05,-1.9450206e-05,-9.980935e-06,-7.575029e-06,-2.902218e-06,-0.000120620534,-4.205294e-06,-1.8743958e-05,-8.5877315e-07,1.162085e-05,5
1.9171002e-06,3.812336e-08,9.061353e-06,-2.2471695e-05,-1.37589905e-05,-5.5606824e-06,-1.0563801e-06,-7.110067e-05,-3.1978293e-06,-1.7401164e-05,-6.910888e-07,1.29637165e-05,5
5.7777047e-06,6.2482354e-06,9.732749e-06,-1.9450608e-05,-1.233711e-05,-2.3713897e-06,-2.1763488e-07,-5.2994355e-06,3.2737367e-07,-1.4883426e-05,-1.0269513e-06,1.1285298e-05,5
6.617022e-06,1.4304689e-05,1.409683e-05,-1.3911787e-05,-9.011152e-06,-2.134391e-08,3.13885e-06,4.136699e-05,3.8525764e-06,-1.169429e-05,3.156795e-07,8.9354835e-06,5
5.6099952e-06,2.0346948e-05,9.5649e-06,-8.876513e-06,-5.6904423e-06,-1.8903602e-07,6.159637e-06,5.8491958e-05,5.5314367e-06,-8.001607e-06,1.9940076e-06,9.606955e-06,5
4.9386676e-06,2.3367926e-05,4.0258756e-06,-5.5197306e-06,-3.4119291e-06,-3.5672807e-07,5.4877405e-06,6.051049e-05,4.692558e-06,-5.3160193e-06,1.1545967e-06,1.22926185e-05,5
5.6101317e-06,2.2192673e-05,3.0187798e-06,-3.841443e-06,-3.6698182e-06,9.86223e-07,5.3193926e-06,6.152193e-05,4.860774e-06,-3.4696775e-06,1.4733916e-07,1.2292694e-05,5
6.1137466e-06,1.5310545e-05,8.3673984e-07,-4.009496e-06,-4.3611185e-06,4.846912e-06,8.843728e-06,6.589036e-05,6.875331e-06,-1.9590343e-06,1.4717583e-07,9.439332e-06,5
3.4282245e-06,1.3787484e-06,-6.045079e-06,-3.841852e-06,-3.5436294e-06,9.3789995e-06,1.0857419e-05,6.72375e-05,6.8756967e-06,-1.9590343e-06,-1.0279333e-06,4.9074793e-06,5
-4.3224242e-07,-1.45672375e-05,-1.2759048e-05,-2.4992644e-06,-1.9999202e-06,9.379157e-06,9.514129e-06,6.153498e-05,6.708213e-06,-1.9590343e-06,-1.8884919e-07,-9.67168e-07,5
-1.2714253e-06,-1.9603021e-05,-1.3598295e-05,-1.8280724e-06,-5.3321213e-07,7.868671e-06,8.338688e-06,4.744e-05,5.5336327e-06,1.7336489e-06,1.6573301e-06,-1.1205894e-05,5
1.749925e-06,-1.3560757e-05,-8.227119e-06,-6.863757e-06,2.8604948e-06,6.022486e-06,8.841737e-06,2.7973847e-05,4.5269016e-06,6.097729e-06,3.1678107e-06,-2.144462e-05,5
4.099876e-06,-4.6650543e-06,-2.688094e-06,-1.9116958e-05,4.394793e-06,4.1763024e-06,8.673393e-06,6.3256552e-06,5.870059e-06,7.1048244e-06,4.0068944e-06,-2.7654965e-05,5
4.9391847e-06,8.73664e-07,-2.506315e-09,-2.7509626e-05,2.7870997e-06,4.008609e-06,7.3301003e-06,-2.0190164e-05,7.884612e-06,4.754935e-06,4.34243e-06,-3.0340474e-05,5
8.29623e-06,3.5589446e-06,1.5081368e-06,-2.2306509e-05,2.5279166e-06,4.512315e-06,6.1546616e-06,-5.2245006e-05,5.5350856e-06,3.5799906e-06,5.0136655e-06,-2.8661905e-05,5
1.031048e-05,5.4049797e-06,4.529423e-06,-7.871684e-06,4.428283e-06,3.841075e-06,4.9792225e-06,-8.111071e-05,-2.857014e-06,4.587086e-06,4.677806e-06,-2.2283555e-05,5
8.632046e-06,7.5867165e-06,7.3828605e-06,6.730991e-06,4.9454256e-06,3.1698366e-06,2.4609874e-06,-9.587707e-05,-1.0074171e-05,3.7478399e-06,4.677645e-06,-1.4562412e-05,5
3.5966261e-06,7.2507114e-06,9.229202e-06,1.7976681e-05,3.8493527e-06,2.8342963e-06,1.10603125e-07,-9.150862e-05,-1.3934342e-05,8.944027e-07,3.8382377e-06,-9.359005e-06,5
2.3969795e-07,4.5648194e-06,8.389956e-06,2.3683344e-05,4.1271155e-06,3.002303e-06,-2.0719287e-06,-7.6901364e-05,-1.5108928e-05,1.3979504e-06,1.9917347e-06,-7.5125845e-06,5
9.1115186e-07,2.8860231e-06,7.215011e-06,2.5025927e-05,4.777735e-06,1.3239679e-06,-5.5972564e-06,-5.5580138e-05,-1.2087281e-05,4.754935e-06,-3.58316e-07,-8.855299e-06,5
2.2540007e-06,2.5500212e-06,5.704368e-06,2.5361414e-05,4.484673e-06,-2.2007082e-06,-9.626132e-06,-2.8719882e-05,-7.7228415e-06,7.440523e-06,-1.5334205e-06,-9.358766e-06,5
4.268246e-06,2.2140189e-06,3.858026e-06,2.8046792e-05,3.3069423e-06,-4.5504394e-06,-1.2480061e-05,-2.1953224e-06,-6.5475388e-06,9.119016e-06,-2.3728276e-06,-6.5052486e-06,5
6.6181883e-06,-6.3972135e-07,4.529423e-06,2.804658e-05,2.787257e-06,-3.7110353e-06,-1.0969911e-05,1.8454515e-05,-6.7150295e-06,8.783317e-06,-2.7086858e-06,-7.9829374e-07,5
8.968129e-06,-1.81497e-06,3.858026e-06,2.4017985e-05,4.4505596e-06,-1.8645362e-06,-5.599226e-06,2.6683512e-05,-8.896713e-06,7.1048244e-06,-1.7017494e-06,3.7673254e-07,5
1.16537685e-05,-3.0462834e-07,-6.739033e-07,1.6968104e-05,5.1476663e-06,-8.572821e-07,1.4499508e-06,2.4338007e-05,-1.225334e-05,4.0835384e-06,9.83678e-07,-1.8052258e-06,5
1.0982422e-05,1.8771087e-06,-6.7164756e-06,1.1093167e-05,4.165922e-06,8.213691e-07,5.142143e-06,1.7628425e-05,-1.4099325e-05,-1.126928e-07,3.1212267e-07,-3.3157871e-06,5
6.6183916e-06,1.2054113e-06,-1.2926897e-05,5.553927e-06,2.7556725e-06,1.4929233e-06,6.1487476e-06,1.2429489e-05,-1.208478e-05,-9.5193883e-07,-2.0379255e-06,-1.4693636e-06,5
1.0794149e-06,8.694122e-07,-1.8465924e-05,-1.3281064e-06,7.556565e-07,-5.211084e-07,5.8125584e-06,9.5804435e-06,-4.1955095e-06,1.7336489e-06,-2.7094823e-06,2.0921208e-07,5
-2.2775214e-06,-4.7368252e-07,-2.1655058e-05,-6.6994976e-06,-1.6778866e-06,-2.367292e-06,1.280141e-06,1.05919335e-05,4.868704e-06,4.587086e-06,-2.206094e-06,-2.9425195e-07,5
-3.1167228e-06,-9.775298e-07,-2.4004949e-05,-7.5389585e-06,-3.1103102e-06,4.863024e-07,-3.923676e-06,1.3281919e-05,1.2422273e-05,4.587086e-06,-1.7027033e-06,-1.8048127e-06,5
-1.2703349e-06,-1.3135298e-06,-2.6186988e-05,-5.860683e-06,-3.4779525e-06,2.8363518e-06,-5.434807e-06,1.66433e-05,2.266143e-05,2.7407443e-06,-2.5421086e-06,-2.6439752e-06,5
-4.3104308e-07,3.646628e-07,-2.38371e-05,-3.1753125e-06,-1.498865e-06,2.6686614e-06,-1.239065e-06,1.8494042e-05,3.4075532e-05,3.0764427e-06,-3.3815115e-06,-1.3010979e-06,5
-4.3099914e-07,2.7142548e-06,-1.8801622e-05,-8.256409e-07,1.0830434e-07,1.4938739e-06,3.963772e-06,1.9337693e-05,3.8104266e-05,2.0693474e-06,-4.3887662e-06,8.810274e-07,5
4.0828888e-07,2.210408e-06,-1.3262596e-05,-1.5446072e-07,-3.1833318e-07,1.512386e-07,5.977478e-06,1.9342096e-05,3.0047855e-05,-1.126928e-07,-3.5496757e-06,3.398851e-06,5
9.1188e-07,1.8744098e-06,-9.402063e-06,1.8101892e-07,-1.7014544e-07,4.870953e-07,5.641292e-06,1.9682202e-05,1.8298759e-05,-1.1197881e-06,-2.7105882e-06,4.238181e-06,5
-9.517481e-08,2.5455108e-06,-5.7093803e-06,1.8080006e-07,1.1514595e-06,2.501446e-06,4.6337113e-06,2.0693706e-05,1.02423455e-05,-2.1268836e-06,-2.5428963e-06,1.7205285e-06,5
-9.3437956e-07,3.2166095e-06,-3.191642e-06,-1.3300623e-06,1.8556582e-06,1.8302069e-06,5.1367724e-06,2.2040911e-05,6.214314e-06,-4.6446225e-06,-2.543053e-06,-1.3006728e-06,5
9.120008e-07,1.5378195e-06,-4.1987373e-06,-1.1569086e-05,1.6432376e-06,6.5542275e-07,5.304136e-06,2.4563062e-05,4.5361708e-06,-6.658813e-06,-3.6116964e-07,-9.648877e-07,5
3.0940791e-06,1.2018248e-06,-3.5273404e-06,-2.6340038e-05,1.1768469e-06,1.5203265e-07,4.967953e-06,2.809231e-05,-7.884324e-06,-6.490964e-06,1.988564e-06,8.815407e-07,5
4.940459e-06,1.8729246e-06,5.0104137e-07,-3.120789e-05,3.6194714e-07,-3.5135537e-07,3.792521e-06,3.027877e-05,-4.5314355e-05,-5.14817e-06,1.3170098e-06,8.8162744e-07,5
6.786837e-06,2.7118767e-06,4.865122e-06,-2.0801455e-05,-1.7503451e-06,-6.8689434e-07,2.9527919e-06,3.0786738e-05,-9.046545e-05,-4.308924e-06,-2.5938093e-08,-4.6107948e-07,5
8.968912e-06,3.3829774e-06,6.7114634e-06,-5.695246e-06,-2.5133565e-06,-6.8673523e-07,1.609515e-06,3.3141045e-05,-0.00011111057,-4.9803207e-06,3.0960422e-07,-1.8037861e-06,5
9.1367965e-06,2.8791353e-06,6.5436143e-06,8.403867e-06,-7.793226e-07,-6.8657613e-07,1.1054848e-06,4.0530835e-05,-9.701088e-05,-4.308924e-06,6.4514677e-07,-1.1323013e-06,5
5.9476947e-06,2.5431427e-06,5.3686695e-06,2.3342225e-05,7.441096e-07,-5.185679e-07,1.6085488e-06,5.0270515e-05,-5.4208977e-05,-2.1268836e-06,3.092935e-07,-2.9296623e-07,5
2.5907425e-06,3.2142445e-06,4.865122e-06,3.324511e-05,1.828828e-06,-2.5325996e-06,2.7830104e-06,5.531042e-05,1.745208e-07,-2.805419e-07,6.448365e-07,3.7851822e-07,5
-5.9836054e-07,3.0461017e-06,3.6901768e-06,3.5762623e-05,3.2833602e-06,-3.5395362e-06,3.1182265e-06,5.4979148e-05,4.985824e-05,-6.162405e-07,-3.6241428e-07,8.82155e-07,5
-3.1160694e-06,2.2065624e-06,2.8509307e-06,3.6265945e-05,3.5982625e-06,-2.70013e-06,4.3215593e-07,5.1290903e-05,8.342843e-05,7.265534e-07,-8.661168e-07,1.3857921e-06,5
-3.1160394e-06,-1.1507154e-06,3.3544784e-06,3.693712e-05,1.7925531e-06,-1.0214786e-06,9.597686e-08,4.726695e-05,9.2492635e-05,2.7407443e-06,3.0867486e-07,1.2180316e-06,5
-4.123104e-06,-4.507993e-06,4.0258756e-06,3.777614e-05,4.4844182e-07,-1.5248681e-06,2.4453861e-06,3.9886017e-05,8.342912e-05,3.7478399e-06,1.6513147e-06,8.8242336e-07,5
-4.626625e-06,-3.836888e-06,2.1795338e-06,3.5090325e-05,9.367953e-07,-3.5388987e-06,3.2841522e-06,2.4448327e-05,6.731594e-05,3.4121413e-06,9.79763e-07,1.2182115e-06,5
-1.7731594e-06,-2.4943859e-06,-6.739033e-07,2.3004954e-05,2.480086e-07,-3.874437e-06,1.4373323e-06,-2.2107237e-07,5.4224034e-05,3.0764427e-06,-8.667327e-07,3.064645e-06,5
1.751701e-06,-2.4946771e-06,-3.6951894e-06,5.212707e-06,2.7433907e-07,-3.5385794e-06,-1.9201318e-06,-3.3282933e-05,4.7846104e-05,2.0693474e-06,-2.7638094e-08,5.246775e-06,5
2.9266705e-06,-3.166365e-06,-6.045079e-06,-1.0901047e-05,-1.8807267e-06,-2.5313236e-06,-7.4596364e-06,-6.768758e-05,4.6335805e-05,2.0693474e-06,2.6577948e-06,3.7362229e-06,5
7.4465623e-07,-3.5023534e-06,-7.723571e-06,-2.0468682e-05,-4.6355112e-06,1.5442299e-07,-1.3334838e-05,-9.5546115e-05,4.1804215e-05,3.244292e-06,2.3219438e-06,2.2256704e-06,5
-2.780155e-06,-1.8241525e-06,-9.234214e-06,-2.1979555e-05,-4.2859597e-06,2.8401719e-06,-1.8370794e-05,-0.00011148734,3.391564e-05,6.097729e-06,6.4329913e-07,1.2186672e-06,5
-3.4515292e-06,2.1899853e-08,-9.737762e-06,-1.8790648e-05,-2.0180196e-06,1.6653856e-06,-2.2231803e-05,-0.00011215429,2.6027066e-05,9.958262e-06,2.8251857e-06,2.1166441e-07,5
-9.3376747e-07,6.9300864e-07,-7.723571e-06,-1.5098194e-05,-1.6049454e-06,-3.2020826e-06,-2.4917867e-05,-9.469352e-05,1.4613656e-05,1.2811699e-05,6.1820183e-06,-1.131037e-06,5
9.125945e-07,8.6056883e-07,-4.5344354e-06,-1.2916384e-05,-2.6449013e-06,-7.901701e-06,-2.4414796e-05,-6.179061e-05,3.4680824e-07,1.1804604e-05,5.1747716e-06,-4.5954724e-07,5
-4.3017948e-07,2.2030745e-06,-2.3523958e-06,-9.559629e-06,-3.518104e-06,-8.740785e-06,-2.2065384e-05,-2.5698573e-05,-9.723809e-06,9.119016e-06,2.4890317e-06,2.729681e-06,5
-2.4443505e-06,2.5384854e-06,8.3673984e-07,-3.852986e-06,-2.2465624e-06,-9.076323e-06,-1.7030381e-05,-5.3843596e-06,-1.4758949e-05,6.097729e-06,8.1038814e-07,5.5832115e-06,5
-3.9549764e-06,2.034649e-06,4.6972723e-06,8.465605e-07,-3.2419416e-07,-8.908314e-06,-1.0988284e-05,-7.3940923e-06,-1.4758612e-05,4.4192366e-06,4.7453884e-07,7.261798e-06,5
-6.1369988e-06,5.2371985e-07,6.7114634e-06,3.5319165e-06,6.63453e-07,-6.558267e-06,-7.296074e-06,-2.3838858e-05,-1.1569143e-05,2.7407443e-06,6.422368e-07,6.4226465e-06,5
-9.158269e-06,-1.4907589e-06,7.215011e-06,5.210177e-06,1.4820811e-06,-3.033273e-06,-5.953754e-06,-3.5583842e-05,-7.5404237e-06,-6.162405e-07,3.0638793e-07,5.583494e-06,5
-9.158253e-06,-1.8267442e-06,6.3757648e-06,7.391983e-06,1.5146481e-06,-3.2009618e-06,-5.282832e-06,-2.8361861e-05,-6.3651464e-06,-4.308924e-06,-5.3300965e-07,4.240795e-06,5
-4.45846e-06,-4.8423504e-07,7.3828605e-06,1.0413036e-05,1.133719e-06,-4.8792945e-06,-4.779758e-06,-1.0229677e-05,-3.6792235e-06,-7.4980594e-06,-1.036708e-06,3.401645e-06,5
4.0917985e-07,1.8687552e-07,1.0068448e-05,1.19234455e-05,1.8426955e-06,-5.2148325e-06,-4.94808e-06,3.2027303e-06,-1.4968512e-06,-8.673003e-06,-7.0116016e-07,3.2338917e-06,5
3.5983285e-06,1.3615355e-06,1.1075544e-05,9.90902e-06,2.7070118e-06,-4.207575e-06,-5.9556464e-06,5.8927867e-06,-2.5036134e-06,-7.3302103e-06,1.312881e-06,8.840975e-07,5
4.941135e-06,2.2004979e-06,1.0068448e-05,6.216102e-06,4.454191e-06,-1.3539795e-06,-6.627516e-06,-4.6772434e-06,-4.1817734e-06,-3.9732254e-06,1.8162802e-06,-1.8013943e-06,5
2.255558e-06,8.574197e-07,9.061353e-06,4.705223e-06,5.7050665e-06,2.338866e-06,-3.7745515e-06,-1.9779201e-05,-6.195634e-06,-2.2947327e-06,-3.021012e-08,-1.1299007e-06,5
-2.4442102e-06,-1.6606031e-06,8.893503e-06,3.1943432e-06,5.762146e-06,4.1853687e-06,7.569097e-07,-2.4138806e-05,-8.209494e-06,-2.2947327e-06,-2.0445502e-06,1.3879352e-06,5
-5.12979e-06,-3.8429266e-06,5.704368e-06,-1.5056712e-06,5.606285e-06,4.689076e-06,6.799009e-06,-1.3224129e-05,-1.02233535e-05,-3.301828e-06,-1.5411523e-06,8.8448434e-07,5
-3.619139e-06,-4.514606e-06,8.3673984e-07,-4.862893e-06,6.1861897e-06,6.1998808e-06,1.149832e-05,1.0475345e-06,-1.1901517e-05,-3.9732254e-06,-8.6990497e-07,-9.617601e-07,5
2.4140004e-07,-2.1649998e-06,-1.848848e-06,-5.870226e-06,7.474702e-06,7.3749843e-06,1.0826451e-05,9.948026e-06,-1.2908282e-05,-1.7911851e-06,3.0489255e-07,-2.6401544e-06,5
2.4234473e-06,1.8460713e-07,-3.0237927e-06,-7.884656e-06,6.7825063e-06,7.710845e-06,9.986737e-06,1.398089e-05,-1.4250747e-05,5.5156498e-08,1.4796893e-06,-3.1436043e-06,5
4.2697943e-06,1.1914215e-06,-5.2058326e-06,-1.0234783e-05,5.478329e-06,7.543155e-06,1.0489815e-05,1.7510209e-05,-1.4921816e-05,7.265534e-07,3.3258823e-06,-1.9685604e-06,5
6.955386e-06,1.5268382e-06,-8.394968e-06,-1.1074268e-05,4.8070765e-06,6.5362215e-06,1.0489347e-05,1.8521789e-05,-1.1900203e-05,3.908549e-07,3.1578857e-06,-7.9351753e-07,5
7.962485e-06,-4.876325e-07,-1.1080556e-05,-1.1913754e-05,4.2892884e-06,4.1864932e-06,8.810389e-06,1.8861976e-05,-9.046439e-06,-2.2947327e-06,6.3999903e-07,8.850747e-07,5
8.298186e-06,-3.173501e-06,-1.1248406e-05,-1.1578296e-05,2.7590618e-06,2.1724613e-06,6.7957294e-06,1.8195067e-05,-1.1731701e-05,-3.9732254e-06,1.3630472e-07,2.0601183e-06,5
6.2839968e-06,-5.187972e-06,-1.0409159e-05,-1.0403592e-05,6.039583e-07,1.8369243e-06,5.620319e-06,1.3835479e-05,-1.6263304e-05,-3.9732254e-06,6.397047e-07,1.5566712e-06,5
1.5842191e-06,-6.1953465e-06,-1.1248406e-05,-1.1075228e-05,-2.22088e-06,6.6214227e-07,1.9271697e-06,6.7903047e-06,-1.8445018e-05,-4.1410744e-06,-3.183814e-08,1.3889224e-06,5
-4.458353e-06,-6.0277766e-06,-1.30947465e-05,-1.2250414e-05,-3.9702927e-06,-1.0161897e-06,-4.115869e-06,4.1092103e-06,-1.8948243e-05,-5.651718e-06,-2.0461757e-06,8.85475e-07,5
-1.05009285e-05,-6.195904e-06,-1.1584105e-05,-1.2754204e-05,-3.6210768e-06,-2.0231246e-06,-8.312565e-06,2.7709139e-06,-1.7269427e-05,-8.505154e-06,-3.389116e-06,5.498779e-07,5
-1.251512e-05,-7.2032785e-06,-7.723571e-06,-1.1411655e-05,-3.533485e-06,-1.6872655e-06,-9.991521e-06,-3.2671605e-06,-1.2905022e-05,-8.505154e-06,-3.3892622e-06,1.3892252e-06,5
-1.1172329e-05,-8.714199e-06,-4.3665864e-06,-8.558459e-06,-4.9675723e-06,-5.1215835e-07,-9.991986e-06,-6.7874944e-06,-8.372772e-06,-3.6375266e-06,-2.046614e-06,3.9070646e-06,5
-6.6404054e-06,-8.04308e-06,-3.0237927e-06,-3.5232256e-06,-5.504898e-06,-3.4414813e-07,-1.0328148e-05,-4.097405e-06,-5.6868603e-06,3.0764427e-06,-2.3824596e-06,5.2499604e-06,5
-1.7727812e-06,-5.1899196e-06,-2.3523958e-06,5.049114e-07,-4.362788e-06,-1.7613789e-07,-1.2174954e-05,-6.451928e-08,-4.175896e-06,6.769126e-06,-3.557548e-06,4.914365e-06,5
5.77102e-07,-3.176005e-06,-6.739033e-07,5.372296e-06,-2.2519114e-06,6.632704e-07,-1.2511114e-05,2.793423e-06,-5.182671e-06,5.0906337e-06,-2.8862971e-06,2.7324265e-06,5
7.4494534e-07,-3.176281e-06,8.3673984e-07,8.7290355e-06,-6.661078e-07,2.8454717e-06,-8.6510445e-06,3.3014778e-06,-5.6858976e-06,4.2513875e-06,-8.722521e-07,5.504903e-07,5
-4.300073e-07,-3.5122548e-06,3.6901768e-06,9.568036e-06,-1.3567729e-06,2.8456332e-06,-4.790974e-06,6.2039754e-07,-4.174935e-06,6.769126e-06,3.0254927e-07,4.7045575e-08,5
-7.657138e-07,-3.176832e-06,7.5507096e-06,1.2421227e-05,-1.8803605e-06,1.8386976e-06,-7.630534e-07,-3.9070205e-06,-1.4890289e-06,1.0126111e-05,-3.3293148e-08,1.8934901e-06,5
1.5841657e-06,-2.5057097e-06,1.0068448e-05,1.6281514e-05,-2.519397e-06,1.6036702e-07,3.0970177e-06,-8.266589e-06,-1.1530115e-06,1.2476001e-05,-1.5440813e-06,3.572087e-06,5
4.2697434e-06,-1.834588e-06,1.1411242e-05,1.779191e-05,-2.5653117e-06,-6.7871645e-07,7.6284855e-06,-9.772719e-06,-3.1668847e-06,1.1636755e-05,-4.7333615e-06,3.4043424e-06,5
5.612525e-06,-1.499163e-06,1.1914789e-05,1.5777472e-05,-8.4882424e-07,-7.1589197e-09,1.182426e-05,-2.5506856e-06,-3.3344163e-06,7.440523e-06,-6.915544e-06,7.1885887e-07,5
5.6125127e-06,-4.923405e-07,1.2418337e-05,1.2588088e-05,3.3732254e-06,1.1679476e-06,1.4005838e-05,1.20567165e-05,-1.8234566e-06,5.426332e-06,-7.0835376e-06,-1.7987752e-06,5
4.6054047e-06,1.7878243e-07,1.1746941e-05,8.559458e-06,4.9514874e-06,1.5038073e-06,1.4173228e-05,2.7671214e-05,-1.1517435e-06,6.433427e-06,-6.0765856e-06,-2.9736143e-06,5
2.0876516e-06,1.06608e-08,1.05719955e-05,5.034376e-06,3.5164512e-06,1.503969e-06,1.2829978e-05,2.7675735e-05,-1.6549759e-06,3.7478399e-06,-6.4124265e-06,-2.1342623e-06,5
-7.657994e-07,5.139376e-07,8.725654e-06,3.8591807e-06,1.728747e-06,2.0076777e-06,1.2158122e-05,8.377593e-06,-2.158209e-06,-6.162405e-07,-7.419664e-06,5.5143147e-07,5
-5.129896e-06,1.7796584e-07,5.704368e-06,2.8518357e-06,7.3284775e-07,1.8399904e-06,1.03113225e-05,-1.3531395e-06,-2.1578946e-06,-2.9661298e-06,-6.077014e-06,3.9085216e-06,5
-9.997542e-06,-1.5007975e-06,3.3544784e-06,5.0169535e-07,9.757649e-07,2.0080013e-06,6.1146357e-06,4.861808e-06,-2.661128e-06,-1.9590343e-06,-3.7272662e-06,6.7620663e-06,5
-9.1583115e-06,-4.939724e-07,1.5081368e-06,-1.5127455e-06,1.4268671e-06,-1.738759e-07,3.764288e-06,9.901811e-06,-5.1785537e-06,-1.623336e-06,-2.0489151e-06,7.433569e-06,5
-2.2765116e-06,2.6948933e-06,-6.739033e-07,-3.3593387e-06,1.0703815e-06,-1.684358e-06,3.5959831e-06,8.059998e-06,-9.54232e-06,-1.4554867e-06,-2.0490568e-06,6.2587324e-06,5
3.9338897e-06,4.876662e-06,-2.3523958e-06,-5.8773285e-06,1.9462163e-06,-1.0127981e-06,3.4276786e-06,4.8753936e-06,-1.1724051e-05,1.3979504e-06,-1.0421044e-06,3.573252e-06,5
5.276663e-06,6.2191875e-06,-5.3736817e-06,-8.227471e-06,2.4513636e-06,4.980058e-07,1.9165816e-06,4.544226e-06,-1.357008e-05,4.0835384e-06,-2.0299865e-07,1.3913198e-06,5
3.933848e-06,4.8761235e-06,-8.730666e-06,-7.892026e-06,5.9175125e-07,2.0088107e-06,2.4196743e-06,1.0759181e-05,-1.2394825e-05,5.258483e-06,9.718043e-07,8.8788e-07,5
4.9409214e-06,3.3652118e-06,-1.0577008e-05,-6.5494846e-06,-1.2763678e-06,3.1839188e-06,6.111904e-06,1.9659727e-05,-6.8554896e-06,5.426332e-06,-2.0328048e-07,1.2236866e-06,5
7.626486e-06,8.4720546e-07,-1.242335e-05,-6.0461894e-06,-9.131404e-07,3.8554767e-06,7.789945e-06,2.5706835e-05,2.2086786e-06,4.587086e-06,-1.7140641e-06,8.880974e-07,5
8.297859e-06,-1.5029524e-06,-1.477324e-05,-5.7107445e-06,1.1312758e-06,2.8485451e-06,5.9431486e-06,3.0411155e-05,9.762203e-06,3.244292e-06,-3.0569984e-06,-1.4616834e-06,5
7.2907374e-06,-2.8460138e-06,-1.494109e-05,-4.8717543e-06,2.4014446e-06,-3.4042878e-07,5.774846e-06,4.1493742e-05,1.0098211e-05,3.0764427e-06,-2.2178933e-06,-2.1329697e-06,5
5.44437e-06,-1.8391858e-06,-1.3262596e-05,-3.5292155e-06,1.0718227e-06,-3.5294026e-06,7.788587e-06,5.7108264e-05,4.559493e-06,3.0764427e-06,-1.5466352e-06,-1.797162e-06,5
3.5980008e-06,-8.323552e-07,-1.7962375e-05,1.6321178e-07,-3.4955258e-07,-6.214829e-06,9.1309275e-06,7.473698e-05,3.6356892e-07,2.4050457e-06,-1.7146237e-06,-2.3005998e-06,5
3.597973e-06,-1.5040193e-06,-2.8033328e-05,4.3591867e-06,-9.451878e-07,-5.5432693e-06,1.0137572e-05,9.454774e-05,6.9957434e-07,-2.805419e-07,-2.050461e-06,-1.4612432e-06,5
4.4371914e-06,-2.007833e-06,-3.47473e-05,5.701724e-06,-1.1477317e-06,-3.696765e-06,9.465725e-06,0.00011217645,1.9633221e-07,-4.308924e-06,-3.393394e-06,-2.8618638e-07,5
4.9407095e-06,-6.6530316e-07,-3.457945e-05,5.030071e-06,-1.3473245e-06,-4.2001493e-06,5.7725915e-06,0.000121077006,-6.4260854e-07,-3.301828e-06,-3.393533e-06,-1.1253222e-06,5
2.255091e-06,-1.5048149e-06,-3.1222466e-05,4.5262655e-06,-5.7913223e-07,-3.5285912e-06,1.4080629e-06,0.00010496803,-6.423039e-07,-6.162405e-07,-1.0437835e-06,-1.7966076e-06,5
-1.9411716e-06,-4.190666e-06,-2.3501401e-05,4.022458e-06,1.6657367e-07,-1.8499367e-06,-3.4600162e-06,3.0279662e-05,-9.77699e-07,-7.840898e-07,-3.725249e-07,-2.132194e-06,5
-3.7875461e-06,-5.198026e-06,-1.2759048e-05,2.0080097e-06,3.1530666e-07,-2.8568682e-06,-7.656695e-06,-9.157433e-05,-1.6487925e-06,-1.623336e-06,-8.76211e-07,-3.139178e-06,5
-3.7875795e-06,-3.3519475e-06,-2.1845465e-06,1.5042036e-06,9.67247e-07,-3.0245567e-06,-8.664238e-06,-0.00016928397,-1.4806407e-06,-1.2876374e-06,-1.0441978e-06,-2.4676683e-06,5
-2.6126688e-06,-1.6737184e-06,6.7114634e-06,3.8538324e-06,1.5029746e-06,-1.5137513e-06,-7.3218903e-06,-0.00013990581,-1.6481875e-06,-2.2947327e-06,-1.2121844e-06,-1.4604603e-06,5
7.288288e-08,4.5109854e-09,1.3593282e-05,6.3713114e-06,1.1206549e-06,-5.064917e-07,-4.8046e-06,-5.765512e-05,-2.487132e-06,-5.3160193e-06,2.983222e-07,-2.854012e-07,5
4.6047767e-06,1.3470429e-06,1.812521e-05,5.1961065e-06,4.876544e-07,-2.7821194e-09,-1.6159105e-06,-1.6527501e-05,-3.829624e-06,-8.673003e-06,3.1516222e-06,2.1825929e-07,5
6.954629e-06,2.0181783e-06,2.0810798e-05,1.5031627e-06,3.4640635e-07,8.366275e-07,1.0692326e-06,-3.632915e-05,-4.500722e-06,-1.2533536e-05,4.997826e-06,5.540721e-07,5
4.6047016e-06,3.192862e-06,2.332854e-05,-3.4344066e-07,1.0843453e-06,2.1795822e-06,2.0758812e-06,-7.996539e-05,-2.821929e-06,-1.5051275e-05,4.3262926e-06,1.5612812e-06,5
2.0869236e-06,3.3604504e-06,2.8196166e-05,-8.4725156e-07,1.8310035e-06,2.8511438e-06,3.0825313e-06,-0.00011890186,-9.752888e-07,-1.4212028e-05,3.3190613e-06,4.750532e-06,5
1.7511859e-06,4.367286e-06,3.574938e-05,-1.351061e-06,3.8057877e-07,2.0120585e-06,3.4177847e-06,-0.00014659243,-1.4785383e-06,-1.0855045e-05,1.6404331e-06,6.2612894e-06,5
7.440501e-07,6.213368e-06,3.9777762e-05,-4.20476e-06,-2.4624508e-06,-1.5126127e-06,1.2353029e-06,-0.00015498031,-2.8210334e-06,-5.987416e-06,-2.0604473e-07,5.590007e-06,5
-1.7737306e-06,5.541711e-06,3.8938517e-05,-6.890612e-06,-4.2350325e-06,-5.2051328e-06,-6.1148353e-07,-0.0001220773,-1.9814902e-06,3.908549e-07,2.9736765e-07,5.92582e-06,5
-5.466456e-06,6.0450006e-06,3.6756475e-05,-6.21948e-06,-4.7891826e-06,-5.540668e-06,-1.9547194e-06,-4.6876266e-05,1.2079418e-06,7.2726734e-06,2.4792712e-06,6.765184e-06,5
-8.152088e-06,7.891083e-06,3.1217452e-05,-3.5341552e-06,-4.6420955e-06,-2.18352e-06,-3.8015048e-06,4.0074206e-05,4.3973737e-06,1.5497286e-05,3.4862321e-06,6.597451e-06,5
-7.984282e-06,7.890825e-06,2.3496388e-05,-8.48833e-07,-4.6075425e-06,1.5093257e-06,-4.9768905e-06,9.345484e-05,5.5726136e-06,2.3218352e-05,4.1574945e-06,4.4155254e-06,5
-7.1450827e-06,5.372827e-06,1.6111022e-05,4.936958e-07,-5.6115946e-06,2.1808846e-06,-5.984426e-06,9.396296e-05,4.733662e-06,2.6575337e-05,5.1644547e-06,2.2336021e-06,5
-8.152225e-06,1.1763402e-06,1.2418337e-05,9.96979e-07,-5.959583e-06,5.0255557e-07,-5.313471e-06,5.401941e-05,3.0554638e-06,2.4896844e-05,5.8357173e-06,8.909262e-07,5
-7.816572e-06,-2.8522984e-06,1.0404146e-05,1.3324109e-06,-5.312149e-06,-1.1757725e-06,-2.4604733e-06,-8.415931e-06,3.2236069e-06,2.2714805e-05,5.667734e-06,-2.4659416e-06,5
-5.9910315e-07,-3.1882528e-06,9.061353e-06,1.8356922e-06,-4.2769493e-06,-6.654172e-10,-9.50271e-07,-7.890804e-05,4.2309953e-06,2.2882654e-05,5.6676004e-06,-4.983562e-06,5
8.9682535e-06,-6.707696e-07,8.054257e-06,1.164028e-06,-2.3987543e-06,1.1744427e-06,-4.8112433e-06,-0.00015460346,4.399137e-06,2.0532763e-05,4.9960695e-06,-1.7943087e-06,5
1.0982395e-05,1.8467119e-06,8.389956e-06,3.2451345e-07,4.4672632e-08,8.3890774e-07,-1.0015008e-05,-0.00021217117,3.0566346e-06,1.2811699e-05,3.3174442e-06,3.4091368e-06,5
1.750636e-06,1.6786081e-06,9.061353e-06,-8.506996e-07,7.2888554e-07,-1.1751201e-06,-1.3036733e-05,-0.00020024928,1.5462831e-06,4.0835384e-06,2.9602518e-07,4.7520493e-06,5
-9.159616e-06,-5.0368544e-07,5.704368e-06,-3.5365551e-06,-1.1943774e-06,-4.196243e-06,-1.3540718e-05,-0.000116320094,3.5607643e-06,-5.483869e-06,-3.7550572e-07,3.9129213e-06,5
-1.2180955e-05,-1.8467344e-06,1.6534293e-07,-6.390262e-06,-3.6371264e-06,-4.699628e-06,-1.2030512e-05,-5.0314675e-06,4.5681495e-06,-1.3708482e-05,1.1350047e-06,2.2345478e-06,5
-9.495421e-06,-2.518384e-06,-3.191642e-06,-6.8940785e-06,-5.6869253e-06,-4.0280675e-06,-9.177511e-06,6.916248e-05,4.23274e-06,-1.8743958e-05,1.3027213e-06,2.2047746e-07,5
-9.495476e-06,-4.0292803e-06,-3.6951894e-06,-5.8872524e-06,-7.5639437e-06,-4.3636032e-06,-6.9959074e-06,7.823092e-05,3.8973303e-06,-2.1429545e-05,1.2764617e-07,3.8844647e-07,5
-1.1341872e-05,-6.211573e-06,-8.417525e-07,-6.558921e-06,-9.649063e-06,-6.545481e-06,-4.3107557e-06,5.0708237e-05,3.2262215e-06,-2.1765245e-05,4.632123e-07,2.9063058e-06,5
-1.335612e-05,-7.890318e-06,1.0045891e-06,-7.230588e-06,-1.14219265e-05,-8.223808e-06,-2.968395e-06,2.7549631e-05,4.4014537e-06,-1.8240411e-05,-4.0466308e-08,4.2492193e-06,5
-1.0838439e-05,-7.89057e-06,-3.3820479e-07,-5.7202155e-06,-1.0769526e-05,-7.8879475e-06,-3.6402296e-06,2.4868632e-05,5.744534e-06,-1.7569013e-05,-1.3833927e-06,4.58504e-06,5
-4.292376e-06,-7.3872734e-06,-3.0237927e-06,-3.706297e-06,-6.592167e-06,-4.36295e-06,-3.8085127e-06,3.6286972e-05,3.8984786e-06,-2.6297173e-05,-2.0549198e-06,4.5851616e-06,5
9.108908e-07,-6.8839763e-06,-3.6951894e-06,-3.7065695e-06,-3.5388505e-06,-2.1807468e-06,-2.9696973e-06,5.03909e-05,3.7309148e-06,-3.5528883e-05,-1.3836546e-06,3.9138854e-06,5
3.2607197e-06,-7.052076e-06,-3.3594913e-06,-3.5389933e-06,-3.9219003e-06,-3.1876793e-06,-2.1308854e-06,5.878796e-05,5.5775413e-06,-3.5696732e-05,-1.0480873e-06,1.5641183e-06,5
6.785493e-06,-6.3809293e-06,-5.3736817e-06,-1.6929246e-06,-4.7223566e-06,-5.033858e-06,-1.6277708e-06,6.315663e-05,7.4241675e-06,-2.7807817e-05,-7.1251964e-07,5.571455e-07,5
8.799621e-06,-5.877631e-06,-8.394968e-06,-1.8255525e-07,-4.3592454e-06,-3.6908996e-06,1.0573862e-06,6.551112e-05,8.599396e-06,-1.7401164e-05,4.622963e-07,8.929661e-07,5
6.9532175e-06,-4.031538e-06,-9.737762e-06,1.1599645e-06,-1.6082053e-06,-3.3375102e-07,4.0782415e-06,6.752991e-05,8.26398e-06,-8.673003e-06,4.6216644e-07,5.3842992e-08,5
2.9247713e-06,-2.5211436e-06,-9.234214e-06,8.239909e-07,-1.9051319e-07,1.8484515e-06,5.7563007e-06,7.508772e-05,5.746524e-06,-7.840898e-07,-2.0936015e-07,-2.9673201e-06,5
1.7497626e-06,-2.1856938e-06,-8.227119e-06,3.201678e-07,-9.679385e-07,2.855712e-06,4.9166256e-06,8.2981234e-05,4.404012e-06,1.029396e-05,1.8047015e-06,-5.317086e-06,5
2.253245e-06,-5.074484e-07,-7.723571e-06,-3.515038e-07,-2.301109e-06,2.0166276e-06,4.0769505e-06,6.955789e-05,4.2364436e-06,2.3386201e-05,3.3152155e-06,-5.4848115e-06,5
1.5817816e-06,8.350984e-07,-7.723571e-06,-6.8747784e-07,-8.858843e-07,8.4184825e-07,6.09071e-06,3.3978456e-05,3.5653275e-06,2.9932322e-05,2.4758397e-06,-4.309743e-06,5
-6.0032585e-07,1.8419456e-06,-7.89142e-06,-1.8420734e-07,4.081544e-07,-1.6508415e-07,6.090281e-06,7.630733e-06,1.0478686e-06,2.7246733e-05,2.93672e-07,-4.981015e-06,5
-3.4538323e-06,8.3460526e-07,-7.2200237e-06,-3.523333e-07,-1.794607e-06,8.421755e-07,1.725773e-06,3.774806e-06,2.5587913e-06,1.8686422e-05,4.6139266e-07,-5.8201363e-06,5
-1.6075594e-06,-3.4058556e-07,-5.8772293e-06,-5.2045976e-07,-5.790482e-06,1.8494331e-06,-1.6316397e-06,8.479191e-06,3.7340144e-06,1.0797508e-05,1.9719075e-06,-5.820011e-06,5
3.5956964e-06,1.6271605e-07,-5.2058326e-06,-5.207377e-07,-5.95385e-06,2.185295e-06,8.8567305e-07,9.323045e-06,3.0628953e-06,8.783317e-06,2.3074779e-06,-7.1626796e-06,5
8.631103e-06,1.3374162e-06,-5.3736817e-06,-5.2101603e-07,-2.6081623e-06,2.1854587e-06,5.249325e-06,6.138517e-06,4.573816e-06,1.1468905e-05,-4.253778e-08,-9.344594e-06,5
8.966729e-06,8.3362465e-07,-5.7093803e-06,-6.8914386e-07,5.1282335e-08,3.1927193e-06,9.109431e-06,4.296785e-06,6.252585e-06,1.2140302e-05,4.6088192e-07,-1.102296e-05,5
5.6096715e-06,-8.451114e-07,-5.3736817e-06,1.4982187e-07,7.513438e-07,5.3749222e-06,1.1123195e-05,4.301396e-06,7.2599564e-06,1.0797508e-05,1.8035489e-06,-1.3540573e-05,5
2.5883116e-06,-6.775059e-07,-6.212928e-06,2.3315822e-06,6.169769e-07,7.724977e-06,1.2129867e-05,6.320199e-06,7.260232e-06,7.1048244e-06,1.6355731e-06,-1.6561731e-05,5
2.923935e-06,8.32894e-07,-7.2200237e-06,3.0026988e-06,1.044546e-06,7.2215917e-06,1.0450949e-05,7.4997574e-06,6.5891104e-06,2.0693474e-06,2.4746914e-06,-1.7233002e-05,5
6.2808444e-06,2.1754454e-06,-6.3807774e-06,3.8416642e-06,3.8559452e-07,4.0326195e-06,2.058064e-06,7.168674e-06,5.582289e-06,7.265534e-07,1.9710183e-06,-1.5218684e-05,5
9.302054e-06,3.0144492e-06,-5.037983e-06,4.3449313e-06,1.4247162e-07,1.8507435e-06,-1.0195354e-05,6.8375916e-06,3.5683718e-06,3.7478399e-06,1.2455122e-07,-1.3540063e-05,5
9.637675e-06,3.0142076e-06,-3.3594913e-06,2.8340064e-06,-1.1898499e-07,1.3473604e-06,-1.7748991e-05,5.1637153e-06,1.386604e-06,6.769126e-06,1.8029175e-06,-1.1861443e-05,5
5.944914e-06,2.6782682e-06,-3.0237927e-06,4.8383447e-07,1.1872886e-06,3.5295643e-06,-1.8420813e-05,3.4898405e-06,-7.951629e-07,8.447619e-06,3.313435e-06,-1.1189918e-05,5
3.5949445e-06,2.0066295e-06,-3.8630387e-06,-1.362789e-06,3.6753875e-06,4.5368242e-06,-1.5399948e-05,1.8159675e-06,-1.234942e-07,7.2726734e-06,2.6419116e-06,-1.1861186e-05,5
4.937659e-06,2.677787e-06,-4.702285e-06,-1.530921e-06,4.7795493e-06,2.8584961e-06,-1.2211233e-05,2.3241357e-06,3.2337612e-06,8.783317e-06,2.9774856e-06,-1.3036002e-05,5
6.280371e-06,4.523888e-06,-3.0237927e-06,-1.6990534e-06,4.6843625e-06,8.444692e-07,-1.0029614e-05,3.5037012e-06,6.5910167e-06,1.0797508e-05,3.31306e-06,-1.3875118e-05,5
3.594701e-06,5.3628937e-06,-2.0166972e-06,-1.5314884e-06,5.0011545e-06,-1.1695578e-06,-6.1695e-06,2.1655305e-06,9.276874e-06,9.622563e-06,2.6415375e-06,-1.2700044e-05,5
-2.447953e-06,4.019863e-06,-5.06054e-07,-1.8674707e-06,4.4793264e-06,-1.6729427e-06,-1.97369e-06,1.1630582e-06,6.5915556e-06,7.440523e-06,1.9700171e-06,-1.2028518e-05,5
-4.797928e-06,1.6697335e-06,1.0045891e-06,-1.1963594e-06,4.5112347e-06,6.771123e-07,2.725669e-06,2.5104769e-06,3.7383866e-06,5.426332e-06,1.9698932e-06,-1.0517744e-05,5
-3.7909167e-06,1.5016465e-06,-5.06054e-07,-3.5739774e-07,5.470225e-06,1.6843704e-06,4.9072914e-06,3.8578964e-06,3.7386546e-06,2.4050457e-06,1.4662226e-06,-7.1606287e-06,5
-1.1054154e-06,2.172807e-06,-2.688094e-06,-1.8983445e-07,4.67015e-06,1.5166855e-06,3.396228e-06,4.8696184e-06,3.5710727e-06,1.2301012e-06,9.625501e-07,-6.1534024e-06,5
3.2585788e-06,2.1725698e-06,-2.8559432e-06,-3.579696e-07,3.0199108e-06,3.3631916e-06,1.7173196e-06,5.8813425e-06,2.8999423e-06,2.0693474e-06,-3.803671e-07,-6.153271e-06,5
6.951175e-06,8.2953926e-07,-2.3523958e-06,4.809888e-07,1.7414748e-06,6.2167937e-06,1.7169026e-06,5.8859714e-06,1.7252638e-06,7.265534e-07,-1.051887e-06,-3.80325e-06,5
7.2867842e-06,-9.943893e-09,-3.3594913e-06,1.1520997e-06,2.823083e-06,6.720505e-06,-4.655548e-07,6.5619975e-06,1.5576802e-06,-2.2947327e-06,-1.0520097e-06,5.6096246e-07,5
5.6082026e-06,1.8361615e-06,-5.2058326e-06,2.3267562e-06,2.8865245e-06,5.881422e-06,-1.9766128e-06,6.3987795e-06,2.2293411e-06,-2.9661298e-06,-4.5035154e-08,1.2324906e-06,5
4.9367163e-06,3.850117e-06,-6.3807774e-06,1.6550722e-06,2.3918255e-06,5.5458872e-06,7.0856095e-07,4.55707e-06,2.397455e-06,-4.1410744e-06,6.2623866e-07,1.4004731e-06,5
7.1186646e-06,5.8640753e-06,-5.2058326e-06,1.1512358e-06,2.7986048e-06,5.0425047e-06,4.065131e-06,8.5900865e-06,8.8707515e-07,-6.9945113e-06,1.2975128e-06,3.5826458e-06,5
8.964914e-06,5.528141e-06,-3.6951894e-06,1.1509468e-06,5.7729912e-06,3.5320256e-06,6.750302e-06,2.2022658e-05,8.8733793e-07,-8.673003e-06,2.3044872e-06,4.254175e-06,5
8.629123e-06,4.1851144e-06,-3.6951894e-06,2.4934516e-06,7.4308173e-06,2.860794e-06,9.771175e-06,3.6126632e-05,2.0625446e-06,-9.008702e-06,4.486406e-06,2.4079675e-06,5
6.614838e-06,3.6813321e-06,-5.037983e-06,2.1574626e-06,6.454172e-06,3.1966563e-06,1.7827524e-05,4.620222e-05,2.2306551e-06,-1.0015799e-05,6.3326265e-06,1.9045532e-06,5
4.097004e-06,3.8489484e-06,-4.5344354e-06,8.1437844e-07,6.4600804e-06,4.0360655e-06,2.722667e-05,5.1578038e-05,5.524234e-07,-1.1190742e-05,7.507451e-06,5.6189424e-07,5
2.586265e-06,3.848716e-06,-2.1845465e-06,1.1497867e-06,6.953336e-06,6.0504217e-06,3.2429587e-05,5.4939657e-05,5.526836e-07,-1.27013855e-05,5.996686e-06,-1.1164643e-06,5
-7.708156e-07,2.84139e-06,-1.0096018e-06,2.4922897e-06,5.2465266e-06,6.889832e-06,3.4107667e-05,5.6958484e-05,5.529432e-07,-1.2029988e-05,2.6395808e-06,2.2646434e-07,5
-6.8134873e-06,1.4983634e-06,-1.3453003e-06,2.324148e-06,2.9258472e-06,5.2115033e-06,3.2260916e-05,5.5116783e-05,2.1750417e-07,-1.1358591e-05,-3.8182526e-07,8.9799636e-07,5
-8.4920775e-06,1.1624345e-06,-2.0166972e-06,8.13213e-07,2.4574097e-06,3.533176e-06,3.007846e-05,4.8911006e-05,3.2390487e-06,-1.33727835e-05,-1.724738e-06,2.2673467e-07,5
-4.967343e-06,-1.27410695e-08,-1.0096018e-06,4.772215e-07,5.5689197e-06,3.7011894e-06,2.7560314e-05,3.8005448e-05,5.924894e-06,-1.3540633e-05,-2.7319536e-06,2.2410602e-06,5
-7.712115e-07,-1.8593131e-06,-1.7035555e-07,1.8197235e-06,6.923781e-06,4.037052e-06,2.2524428e-05,2.1057318e-05,4.2466586e-06,-1.32049345e-05,-4.242717e-06,4.2553875e-06,5
1.2428782e-06,-2.5309387e-06,-1.0096018e-06,2.8265251e-06,4.500247e-06,4.205067e-06,1.765639e-05,-1.4298363e-06,2.232724e-06,-1.5386973e-05,-3.403588e-06,4.9269215e-06,5
2.41772e-06,-1.3562238e-06,-2.3523958e-06,2.4905332e-06,3.0631231e-06,3.3659844e-06,1.2788355e-05,-2.8616769e-05,8.9018636e-07,-2.0086753e-05,-3.0680087e-06,7.276947e-06,5
4.263959e-06,3.2203957e-07,-2.688094e-06,2.15454e-06,2.0185967e-06,3.1983e-06,7.0810715e-06,-5.983208e-05,-1.4594486e-06,-2.3275887e-05,-4.0752243e-06,1.0130522e-05,5
7.1172913e-06,1.4967565e-06,-2.0166972e-06,2.9934913e-06,3.1147493e-07,4.0377095e-06,1.9884563e-07,-8.534052e-05,-3.4733841e-06,-2.3108038e-05,-4.7467383e-06,1.0634206e-05,5
9.970624e-06,2.6714747e-06,-2.520245e-06,2.825347e-06,-9.340885e-07,4.373574e-06,-6.01198e-06,-9.893166e-05,-5.4873212e-06,-2.1429545e-05,-3.0683634e-06,7.780905e-06,5
1.0306217e-05,3.1747945e-06,-5.7093803e-06,6.430105e-07,3.1271904e-07,3.7023403e-06,-8.697975e-06,-9.7248514e-05,-6.158466e-06,-1.169429e-05,-8.864422e-07,7.6131946e-06,5
9.466864e-06,2.8388697e-06,-7.723571e-06,-5.322286e-07,3.8187077e-06,2.8632599e-06,-1.1383968e-05,-7.810906e-05,-4.1440217e-06,5.426332e-06,-2.3972027e-06,9.7953725e-06,5
7.788263e-06,9.923015e-07,-6.884325e-06,1.4816659e-06,6.1509118e-06,2.1920255e-06,-1.7762643e-05,-6.249442e-05,-1.1538783e-07,2.0700612e-05,-4.0758127e-06,1.1641854e-05,5
3.4240743e-06,-1.1899642e-06,-4.1987373e-06,2.488464e-06,6.3505754e-06,1.520794e-06,-2.7834003e-05,-7.0546535e-05,3.0739982e-06,2.8925226e-05,-3.4045308e-06,1.1809841e-05,5
-4.4649482e-06,-3.7079285e-06,-3.191642e-06,1.4810715e-06,5.462447e-06,-4.932315e-07,-3.8576756e-05,-8.447337e-05,3.0742488e-06,3.3625005e-05,-1.0547595e-06,8.956543e-06,5
-1.1346878e-05,-5.8901933e-06,-3.8630387e-06,-1.9771934e-07,5.1662887e-06,-3.514354e-06,-4.7137473e-05,-6.9530135e-05,2.2352524e-06,3.7989084e-05,-4.77789e-08,7.6138886e-06,5
-1.1682689e-05,-6.2261156e-06,-4.870134e-06,1.1447763e-06,4.8597144e-06,-5.8640785e-06,-4.8984217e-05,-3.2934346e-05,1.5641054e-06,4.0338975e-05,-1.2228411e-06,6.271235e-06,5
-6.479475e-06,-6.729888e-06,-5.037983e-06,2.4872716e-06,3.2444784e-06,-7.542406e-06,-4.428484e-05,-1.0773591e-05,5.572578e-07,3.6310594e-05,-3.572845e-06,3.250089e-06,5
-5.976038e-06,-8.576453e-06,-3.6951894e-06,2.1512735e-06,8.008449e-07,-1.1234925e-05,-4.025686e-05,-1.4293769e-05,-1.4566853e-06,2.808598e-05,-4.9157557e-06,2.2894241e-07,5
-1.3025821e-05,-1.1262264e-05,-3.5273404e-06,-5.3461315e-07,-8.125632e-07,-1.4591745e-05,-3.9082315e-05,-2.6877806e-05,-4.813423e-06,1.7343627e-05,-4.412324e-06,-4.4231396e-07,5
-1.7893566e-05,-1.1933883e-05,-3.6951894e-06,-1.2063113e-06,-1.9794288e-06,-1.5262976e-05,-3.3543693e-05,-3.3419266e-05,-6.9952152e-06,8.11192e-06,-3.573191e-06,2.579113e-06,5
-1.3865299e-05,-1.09270095e-05,-2.3523958e-06,6.397293e-07,-3.2525118e-06,-1.4087868e-05,-2.1458945e-05,-2.8882681e-05,-6.659271e-06,3.4121413e-06,-5.08395e-06,3.5863502e-06,5
-6.4800497e-06,-8.073795e-06,-2.506315e-09,2.4857713e-06,-2.9618525e-06,-1.0730719e-05,-8.199256e-06,-1.8135668e-05,-3.8055878e-06,3.7478399e-06,-7.433953e-06,1.907999e-06,5
-2.4517833e-06,-5.556277e-06,1.6759861e-06,3.156866e-06,-1.3039579e-06,-6.3664747e-06,1.9280662e-07,-8.563602e-06,-9.51907e-07,5.426332e-06,-7.434068e-06,9.0104567e-07,5
-2.1162039e-06,-3.0387585e-06,2.8509307e-06,3.1565642e-06,6.722028e-08,-3.84857e-06,4.0529444e-06,-2.348519e-06,-1.1241592e-07,6.097729e-06,-6.4270866e-06,1.2368859e-06,5
-2.4520214e-06,-8.569376e-07,1.8438353e-06,2.988413e-06,1.081644e-06,-2.8413094e-06,6.066736e-06,3.3630172e-06,-7.835695e-07,3.4121413e-06,-5.4201046e-06,3.5869184e-06,5
-2.1164437e-06,-6.8930825e-07,1.0045891e-06,2.8202612e-06,1.0723699e-06,-1.4983527e-06,6.569886e-06,1.4110032e-05,-7.833267e-07,-6.162405e-07,-3.741726e-06,4.426306e-06,5
-1.1094711e-06,-1.813134e-08,2.1795338e-06,2.48426e-06,1.0418861e-06,5.1600296e-07,8.415833e-06,2.854973e-05,-1.11687555e-07,-2.9661298e-06,-3.0704423e-06,2.5801082e-06,5
2.3320067e-07,1.827991e-06,3.0187798e-06,1.8125595e-06,1.0716243e-06,3.0339077e-06,1.26116665e-05,4.0975236e-05,1.5670462e-06,-2.7982803e-06,-4.4133503e-06,2.303627e-07,5
9.0447554e-07,3.1705679e-06,2.6830814e-06,-2.019355e-07,1.6119101e-06,2.1948244e-06,1.4121913e-05,5.2057952e-05,2.4065332e-06,-4.308924e-06,-5.084859e-06,-1.4479866e-06,5
1.5757486e-06,1.8275553e-06,2.6830814e-06,-2.0485809e-06,1.8683556e-06,-1.5489886e-07,1.2443028e-05,6.196572e-05,8.9613e-07,-8.673003e-06,-4.4135754e-06,-1.7835405e-06,5
3.5898136e-06,1.49164e-06,3.0187798e-06,-1.7131879e-06,1.0407874e-06,1.8096391e-07,9.253497e-06,7.3551986e-05,-2.2927666e-06,-1.1358591e-05,-5.0850836e-06,-9.441502e-07,5
6.107427e-06,2.6663693e-06,3.6901768e-06,-7.0639715e-07,4.652097e-07,1.8596206e-06,8.078161e-06,8.580965e-05,-4.1388685e-06,-1.0015799e-05,-4.7494973e-06,-4.4045754e-07,5
9.632135e-06,4.176796e-06,3.3544784e-06,4.682401e-07,-3.0121657e-07,2.8668824e-06,1.0427655e-05,9.437463e-05,-4.1386306e-06,-5.987416e-06,-3.4068141e-06,-1.2795596e-06,5
1.2988991e-05,4.8479765e-06,2.0116845e-06,8.0363293e-07,3.318409e-07,2.8670472e-06,1.5294892e-05,9.320436e-05,-3.4669958e-06,-9.5193883e-07,-2.3998314e-06,-2.2865092e-06,5
1.601015e-05,4.176365e-06,1.3402876e-06,6.354763e-07,1.3112907e-06,1.8162304e-07,1.8147935e-05,7.390636e-05,-3.634608e-06,2.0693474e-06,-1.2249975e-06,-1.7828157e-06,5
1.7017115e-05,1.4905612e-06,2.0116845e-06,1.6422663e-06,9.051531e-07,-1.4967052e-06,1.6469054e-05,3.8326994e-05,-4.305769e-06,2.2371967e-06,-1.5608064e-06,-1.7826699e-06,5
1.2988603e-05,-1.1952401e-06,2.6830814e-06,2.9847517e-06,-3.0857795e-08,-2.8393324e-06,1.1433187e-05,-6.316235e-06,-5.312629e-06,1.2301012e-06,-1.560917e-06,-2.62177e-06,5
3.2532157e-06,-2.20255e-06,1.6759861e-06,2.480897e-06,1.1817339e-07,-2.5034694e-06,5.7259213e-06,-5.7673427e-05,-7.158735e-06,2.2371967e-06,-1.3931783e-06,-3.7965676e-06,5
-2.7894896e-06,-1.5313663e-06,6.688906e-07,1.8091915e-06,-1.2417066e-06,-2.3354557e-06,5.3898334e-06,-9.2245704e-05,-7.829899e-06,3.7478399e-06,-2.9039313e-06,-3.7964207e-06,5
-3.7967177e-06,-8.6018105e-07,6.688906e-07,1.3038972e-07,-4.063394e-06,-3.0066888e-06,8.5785805e-06,-8.989114e-05,-6.822569e-06,5.7620305e-06,-3.5754372e-06,-4.467671e-06,5
-6.8181384e-06,-1.8674905e-06,5.0104137e-07,1.3008052e-07,-5.2880196e-06,-4.013618e-06,7.4032455e-06,-7.05838e-05,-5.143844e-06,5.0906337e-06,-4.2469455e-06,-5.1389206e-06,5
-9.50386e-06,-1.5320034e-06,5.0104137e-07,9.690178e-07,-4.5767224e-06,-3.845604e-06,4.7172725e-06,-6.235451e-05,-4.136516e-06,3.908549e-07,-3.4078068e-06,-2.4531853e-06,5
-7.825503e-06,1.9926192e-06,1.3402876e-06,1.4722558e-06,-4.7145477e-06,-3.1740433e-06,2.3669943e-06,-6.5371125e-05,-4.471983e-06,-6.8266622e-06,-1.5615748e-06,-4.388461e-07,5
-5.8114492e-06,2.6638063e-06,1.0045891e-06,1.2915031e-07,-6.163046e-06,-3.5095763e-06,-1.6617734e-06,-6.4023654e-05,-4.807451e-06,-1.1358591e-05,4.5250752e-07,-1.1100948e-06,5
-4.4687927e-06,3.1370493e-07,1.0045891e-06,-1.7175016e-06,-7.6000115e-06,-2.1666176e-06,-4.851295e-06,-4.4884167e-05,-3.800124e-06,-1.2029988e-05,2.2987401e-06,-1.7813431e-06,5
-3.2939881e-06,-2.539941e-06,3.3319216e-07,-2.892759e-06,-7.5332655e-06,-8.236587e-07,-4.1802837e-06,-1.4834475e-05,-2.9606492e-06,-1.0519346e-05,3.1378788e-06,2.3299681e-07,5
-6.4832634e-06,-3.0436984e-06,-6.739033e-07,-3.2287687e-06,-6.183153e-06,-6.556438e-07,-1.3272318e-06,9.508343e-06,-3.1282693e-06,-6.323115e-06,2.2985241e-06,5.6884505e-07,5
-1.11831805e-05,-1.8689634e-06,-1.6809987e-06,-3.564779e-06,-2.9256946e-06,8.5516405e-07,1.022275e-06,1.8241182e-05,-2.960192e-06,-1.2876374e-06,1.4591714e-06,-1.1094984e-06,5
-1.18547205e-05,-5.2637694e-07,-2.3523958e-06,-2.8936956e-06,2.2026194e-07,2.5338209e-06,1.3575892e-06,1.2538988e-05,-3.2956623e-06,8.944027e-07,4.5196805e-07,-1.7807455e-06,5
-9.504973e-06,-2.3037927e-08,-5.06054e-07,-1.7190627e-06,2.885339e-06,3.373232e-06,1.3572061e-06,-2.2270665e-06,-2.1204912e-06,-1.126928e-07,1.123257e-06,-1.1091984e-06,5
-7.3230754e-06,1.4460356e-07,3.0187798e-06,-7.122802e-07,3.9187444e-06,2.5341508e-06,-4.895195e-07,-2.1692898e-05,-9.4531975e-07,-9.5193883e-07,2.4659441e-06,-1.7804449e-06,5
-7.1553704e-06,-5.269995e-07,5.704368e-06,-2.090471e-07,1.5775914e-06,1.1915216e-06,-6.5775043e-07,-4.283722e-05,-4.4154606e-07,-1.9590343e-06,4.4800286e-06,-4.465882e-06,5
-9.169705e-06,-2.205699e-06,5.032971e-06,-1.8878535e-06,-1.6197895e-06,-4.8680545e-07,1.8111315e-07,-6.0288858e-05,1.2371712e-06,-3.6375266e-06,5.3191684e-06,-5.8085247e-06,5
-8.834153e-06,-1.366659e-06,3.0187798e-06,-2.5595662e-06,-3.1630766e-06,1.8475549e-07,2.0270754e-06,-6.431256e-05,1.5730947e-06,-2.1268836e-06,4.647666e-06,-5.1369766e-06,5
-3.2952755e-06,1.9901204e-06,1.0045891e-06,-1.5527854e-06,-2.7971241e-06,1.3598655e-06,2.6980922e-06,-4.5173063e-05,2.3052415e-07,7.265534e-07,3.3047666e-06,-4.12973e-06,5
2.5793008e-06,1.9899153e-06,-1.0096018e-06,-3.7815602e-07,-2.2552106e-06,5.207833e-07,2.0263155e-06,-8.241547e-06,5.6644524e-07,8.944027e-07,2.297565e-06,-5.472371e-06,5
5.432589e-06,1.4861628e-06,-2.0166972e-06,-2.1062307e-07,-4.685959e-06,-1.3253938e-06,-3.2395354e-07,2.5332985e-05,1.7416129e-06,-1.9590343e-06,2.29746e-06,-6.479315e-06,5
5.768139e-06,4.7886465e-07,-2.0166972e-06,-1.2180355e-06,-5.010383e-06,-3.0037208e-06,-1.5648301e-07,4.2793992e-05,1.0704376e-06,-3.9732254e-06,1.625959e-06,-5.136368e-06,5
5.264441e-06,-8.6413297e-07,-1.0096018e-06,-1.5540504e-06,-4.241566e-06,-1.4929129e-06,4.54292e-06,4.9512644e-05,2.3141247e-07,-7.4980594e-06,9.544564e-07,-2.2827783e-06,5
6.271385e-06,-5.2863805e-07,3.3319216e-07,-1.0508207e-06,-4.3372706e-06,1.8642371e-06,7.395977e-06,4.9517334e-05,5.673309e-07,-1.404418e-05,1.122201e-06,-4.3628322e-07,5
7.6140273e-06,1.4255531e-07,-2.506315e-09,-2.1189145e-07,-3.5372695e-06,4.549991e-06,6.724204e-06,4.3815144e-05,1.574647e-06,-1.840826e-05,1.4577969e-06,-7.7182875e-07,5
8.117421e-06,1.1494492e-06,-2.1845465e-06,4.591864e-07,-1.8854695e-06,5.892949e-06,6.052432e-06,3.8112954e-05,2.2462623e-06,-1.8240411e-05,1.2898421e-06,-1.77877e-06,5
7.781569e-06,2.1563435e-06,-1.6809987e-06,1.8016628e-06,-1.6200124e-06,5.557415e-06,7.2269995e-06,3.2746466e-05,3.2535766e-06,-1.4715577e-05,2.826445e-07,-2.114314e-06,5
5.935073e-06,1.8204424e-06,2.347383e-06,3.1441368e-06,-2.7246315e-06,3.2076919e-06,5.3802846e-06,2.6372883e-05,4.0930404e-06,-1.1358591e-05,-7.2455583e-07,-9.392155e-07,5
3.920726e-06,1.4174974e-07,5.704368e-06,4.4866124e-06,-3.5826981e-06,2.2007598e-06,-6.626627e-07,1.4292429e-05,3.4218604e-06,-9.176551e-06,1.1458917e-07,-6.033618e-07,5
4.424118e-06,3.0939856e-07,5.032971e-06,6.1647847e-06,-3.0956348e-06,2.3687758e-06,-3.0129236e-06,-4.8376965e-06,1.7435848e-06,-7.665908e-06,1.2894294e-06,-1.4424538e-06,5
4.927508e-06,4.169733e-06,2.347383e-06,8.178655e-06,-2.0568261e-06,3.2081866e-06,-1.3348066e-06,-3.286383e-05,1.4081015e-06,-4.8124716e-06,6.1793094e-07,-2.4493936e-06,5
4.92735e-06,6.015876e-06,6.688906e-07,9.856827e-06,-1.6037798e-06,3.5440496e-06,5.1116484e-07,-6.50862e-05,3.2546586e-06,-6.162405e-07,-7.2496624e-07,-3.7920315e-06,5
3.5843957e-06,3.497937e-06,-6.739033e-07,1.0024355e-05,-8.9213484e-07,1.5300235e-06,-9.998521e-07,-7.011698e-05,4.597667e-06,1.3979504e-06,-1.9000112e-06,-5.302519e-06,5
-4.4414557e-07,-8.6634014e-07,-1.5131494e-06,7.5062944e-06,-1.0290307e-06,1.8739446e-07,-4.1893595e-06,-4.2081465e-05,3.7586344e-06,1.2301012e-06,-2.907209e-06,-5.470212e-06,5
-5.479784e-06,-4.055674e-06,-5.06054e-07,2.9740431e-06,-3.3178949e-06,1.8755941e-07,-7.546715e-06,-1.2535309e-05,1.4089579e-06,-1.4554867e-06,-3.5787061e-06,-4.127262e-06,5
-6.3191915e-06,-2.880927e-06,1.3402876e-06,1.2028391e-07,-4.419609e-06,-1.4797365e-07,-1.0904068e-05,2.9115126e-06,1.7448695e-06,-4.9803207e-06,-3.7466573e-06,-1.7772156e-06,5
-3.2980695e-06,-1.2026308e-06,1.8438353e-06,-2.2299268e-06,-4.0154832e-06,-8.192057e-07,-1.1407987e-05,9.798024e-06,3.7592717e-06,-8.001607e-06,-3.4110592e-06,1.9156244e-06,5
-6.1264427e-07,-2.042074e-06,-3.3820479e-07,-4.74799e-06,-4.3446166e-06,-2.4975327e-06,-1.1911904e-05,1.1649058e-05,3.2559353e-06,-8.840852e-06,-2.0683658e-06,3.5942749e-06,5
8.9783407e-07,-2.2101187e-06,-2.688094e-06,-6.2589575e-06,-4.2777024e-06,-1.3224249e-06,-1.2751518e-05,6.953972e-06,-1.0083862e-07,-4.6446225e-06,7.849699e-07,3.2587345e-06,5
3.0797084e-06,-2.8273943e-08,-4.030888e-06,-6.2592817e-06,-1.8012756e-06,6.919331e-07,-1.3423283e-05,-7.476368e-06,-4.129011e-06,7.265534e-07,1.7919659e-06,1.4125504e-06,5
4.254487e-06,3.1606673e-06,-3.191642e-06,-6.427455e-06,1.5352969e-06,1.195645e-06,-1.4095046e-05,-2.4760146e-05,-5.6394447e-06,1.7336489e-06,1.4561682e-06,4.0561267e-07,5
3.5829216e-06,3.1604732e-06,-3.8630387e-06,-7.770572e-06,2.734471e-06,-4.82682e-07,-1.5606058e-05,-3.600135e-05,-6.8141812e-06,-2.805419e-07,1.7917667e-06,1.2450172e-06,5
5.6146746e-07,1.4817864e-06,-8.562817e-06,-8.4422945e-06,3.4160037e-06,-2.8324062e-06,-1.829201e-05,-4.0360737e-05,-8.156769e-06,-9.5193883e-07,3.1344616e-06,4.0593008e-07,5
-1.1171946e-06,4.744991e-07,-1.1584105e-05,-6.7641286e-06,4.9194427e-06,-4.678583e-06,-1.7453129e-05,-3.4481316e-05,-5.8066707e-06,3.908549e-07,3.3022116e-06,-1.7759508e-06,5
5.758028e-08,1.1457024e-06,-1.1248406e-05,-4.2467145e-06,6.39529e-06,-3.839172e-06,-9.564581e-06,-2.0545134e-05,-2.674391e-07,2.7407443e-06,2.2950169e-06,-2.1114893e-06,5
5.740934e-08,2.1526062e-06,-1.30947465e-05,-2.5685501e-06,7.097437e-06,-1.6569684e-06,-2.1795772e-06,-5.098308e-06,3.5932985e-06,3.5799906e-06,1.1199736e-06,-1.7756316e-06,5
-4.4630949e-07,4.7392237e-07,-1.30947465e-05,-1.226083e-06,7.808828e-06,-1.6568034e-06,1.3448931e-06,5.48089e-06,2.5864083e-06,1.7336489e-06,-7.264665e-07,-6.0052656e-07,5
1.5677088e-06,-1.9766689e-07,-7.052174e-06,1.1234798e-06,7.726381e-06,-1.9923366e-06,3.694417e-06,9.010422e-06,-1.9453169e-06,7.265534e-07,-8.9441335e-07,-1.1039142e-06,5
4.2531233e-06,1.9841823e-06,5.0104137e-07,3.137342e-06,8.072945e-06,2.2019401e-08,7.8902885e-06,1.2204253e-05,-3.455756e-06,1.3979504e-06,2.2946251e-06,-1.4394526e-06,5
7.609933e-06,3.662484e-06,4.1937246e-06,4.14411e-06,9.514738e-06,6.935823e-07,1.2086157e-05,1.6740882e-05,-4.3426715e-07,1.3979504e-06,2.9659248e-06,-7.678947e-07,5
7.945456e-06,6.410093e-07,5.704368e-06,3.8080825e-06,1.0425479e-05,2.2349203e-08,1.4099985e-05,2.748793e-05,1.7479755e-06,5.5156498e-08,9.516368e-07,-5.9988344e-07,5
6.9381845e-06,-2.044769e-06,6.3757648e-06,2.6328096e-06,8.538991e-06,1.3653081e-06,1.3763926e-05,5.0320126e-05,2.4195745e-06,-2.6304313e-06,2.8014412e-07,-1.9425158e-06,5
8.952197e-06,-1.5414097e-06,5.032971e-06,2.1289322e-06,6.1633355e-06,2.708268e-06,1.3931415e-05,8.0034144e-05,2.4197755e-06,-4.8124716e-06,2.7977846e-06,-2.110203e-06,5
1.0630512e-05,-5.3450196e-07,1.6759861e-06,3.4713967e-06,5.7576126e-06,2.540583e-06,1.6113097e-05,0.00010437697,3.7627692e-06,-4.6446225e-06,5.9868244e-06,-1.774343e-06,5
1.14695795e-05,-8.7038774e-07,3.3319216e-07,5.6531067e-06,4.9879472e-06,3.7156917e-06,1.8126928e-05,0.00011982382,5.2736123e-06,-3.9732254e-06,5.3153317e-06,-2.613427e-06,5
1.0965852e-05,1.3651903e-07,-1.177451e-06,5.149229e-06,2.4513574e-06,4.2194056e-06,1.9469366e-05,0.00013090656,5.2738114e-06,-4.1410744e-06,1.286854e-06,-4.627455e-06,5
5.258797e-06,3.0418127e-07,-3.6951894e-06,1.288365e-06,1.7640814e-06,3.5481726e-06,1.9469007e-05,0.00013258976,4.6026125e-06,-1.9590343e-06,-5.6033354e-08,-4.1237445e-06,5
-1.2875057e-06,-5.3524997e-07,-3.0237927e-06,-2.5724994e-06,2.2993358e-06,3.5483374e-06,1.6783062e-05,0.00011312393,3.5957148e-06,2.572895e-06,6.152676e-07,-2.1093897e-06,5
-4.476822e-06,2.1501523e-06,5.2008204e-06,-2.7406802e-06,2.4158412e-06,2.8771062e-06,1.3425722e-05,8.023019e-05,4.7708563e-06,7.2726734e-06,1.6222688e-06,-1.2699811e-06,5
-1.9592678e-06,7.185443e-06,1.829306e-05,2.8027375e-07,1.6171751e-06,2.205872e-06,1.10754745e-05,8.77881e-05,5.274601e-06,9.790412e-06,2.6292682e-06,-9.4871275e-08,5
2.740326e-06,1.0542243e-05,3.423874e-05,3.4690772e-06,9.776907e-07,1.8703389e-06,1.0068025e-05,0.00014251165,4.7712483e-06,1.11332065e-05,3.636271e-06,9.1238786e-07,5
8.111317e-06,1.1549155e-05,4.3302596e-05,5.8186333e-06,7.0189435e-07,2.7097517e-06,1.0067671e-05,0.00017558267,3.2608002e-06,9.790412e-06,4.643272e-06,9.125523e-07,5
1.1635965e-05,1.0541875e-05,3.8770668e-05,7.1610943e-06,9.4250385e-07,1.7028195e-06,9.0602225e-06,0.00014587805,2.2538986e-06,9.286865e-06,4.6431783e-06,1.416265e-06,5
1.331427e-05,8.191803e-06,2.6685524e-05,7.832158e-06,8.447831e-07,1.5351353e-06,5.7028838e-06,7.941445e-05,1.750545e-06,1.0126111e-05,3.971688e-06,1.4164301e-06,5
1.16355895e-05,3.99539e-06,1.3089734e-05,7.8318235e-06,-8.278908e-07,5.2820417e-07,2.3455461e-06,2.4364603e-05,1.582889e-06,7.440523e-06,2.6287998e-06,7.380138e-08,5
8.278416e-06,4.7037398e-07,-2.520245e-06,7.160092e-06,-1.601652e-06,-1.150122e-06,-1.0117898e-06,-5.84356e-06,1.5830813e-06,2.2371967e-06,1.2859131e-06,2.41816e-07,5
3.5784471e-06,-7.047528e-07,-1.8465924e-05,6.4883598e-06,-1.6410911e-06,-1.3178083e-06,-6.7190153e-06,-6.15648e-05,1.5832728e-06,1.062252e-06,1.9572185e-06,2.256172e-06,5
-3.8071096e-06,-3.390522e-06,-3.1222466e-05,6.3201755e-06,-1.6613895e-06,-1.3176435e-06,-1.4272581e-05,-0.00018174016,4.085184e-07,2.2371967e-06,3.6356191e-06,1.92064e-06,5
-1.2871159e-05,-5.4048946e-06,-3.9447077e-05,7.1590857e-06,-9.678517e-07,-2.9959706e-06,-1.7965614e-05,-0.00029755142,-9.340854e-07,2.4050457e-06,2.460581e-06,1.5851085e-06,5
-2.0256719e-05,-5.908622e-06,-4.3811157e-05,6.1516544e-06,5.0768282e-08,-3.163655e-06,-1.7630266e-05,-0.0003138281,-1.1017448e-06,1.9014981e-06,-5.7247576e-08,2.5923703e-06,5
-2.29425e-05,-6.915897e-06,-4.0622024e-05,2.9621817e-06,-1.6338769e-06,-3.3313393e-06,-2.1658998e-05,-0.00023275222,5.76936e-07,4.587086e-06,4.4620796e-07,3.5996334e-06,5
-2.596398e-05,-9.098117e-06,-1.9808716e-05,-1.2343862e-06,-4.020706e-06,-5.3453655e-06,-2.8876862e-05,-0.00016376148,2.4234666e-06,7.440523e-06,2.2924578e-06,3.2641028e-06,5
-3.0663952e-05,-1.2958828e-05,2.0810798e-05,-6.4380506e-06,-5.667965e-06,-9.877131e-06,-3.324129e-05,-0.00017282063,1.2487088e-06,8.11192e-06,2.7959138e-06,3.0964213e-06,5
-3.4188983e-05,-1.5308895e-05,6.143031e-05,-1.1977412e-05,-8.815482e-06,-1.2059004e-05,-3.4248733e-05,-0.00019547557,-9.389751e-08,6.769126e-06,2.7808628e-07,4.9429304e-06,5
-3.217499e-05,-1.2959184e-05,5.3037853e-05,-1.5334736e-05,-1.0577986e-05,-1.1051744e-05,-2.770296e-05,-0.00015971898,7.4553463e-07,5.92988e-06,-1.4004971e-06,5.9501926e-06,5
-2.3782724e-05,-7.084637e-06,-1.477324e-05,-1.4999376e-05,-7.0427095e-06,-7.862444e-06,-1.545031e-05,-8.468567e-05,-2.613749e-07,6.265578e-06,-2.2564214e-07,7.628854e-06,5
-1.4047669e-05,-2.3850355e-06,-7.284907e-05,-1.164273e-05,-3.2494618e-06,-3.833898e-06,-6.7224955e-06,-2.5765878e-05,-1.9396832e-06,8.11192e-06,9.4921205e-07,8.803968e-06,5
-8.340994e-06,-2.0495136e-06,-7.335262e-05,-7.614686e-06,-2.003649e-06,-1.1481452e-06,-4.0372533e-06,-3.4372247e-06,-7.6455404e-07,1.11332065e-05,2.7772657e-07,7.96489e-06,5
-5.9913036e-06,-3.2246332e-06,-4.1796968e-05,-3.250947e-06,-2.3803916e-06,1.9481244e-07,-4.037597e-06,1.0994095e-06,1.5855187e-06,1.0797508e-05,-3.9376064e-07,5.9508684e-06,5
-3.8094656e-06,-3.0569595e-06,-1.5780335e-05,7.77095e-07,-1.062466e-06,1.9497709e-07,-1.6880507e-06,1.0167973e-05,1.5857014e-06,6.769126e-06,2.775484e-07,5.2796418e-06,5
-9.562299e-07,-2.5535862e-06,-5.037983e-06,1.4481525e-06,-1.2516199e-07,-4.7625426e-07,6.6149755e-07,2.1922126e-05,-2.442499e-06,1.7336489e-06,-1.4010333e-06,6.1190576e-06,5
5.542091e-07,-1.5466653e-06,-2.0166972e-06,-1.2377774e-06,-1.0633983e-06,-2.4902806e-06,2.0039474e-06,2.2933926e-05,-4.9600567e-06,-2.2947327e-06,-2.5760667e-06,5.279982e-06,5
1.2254033e-06,-1.04329e-06,-3.3594913e-06,-2.5809127e-06,-1.2501638e-06,-3.665061e-06,5.52844e-06,4.8109137e-06,-4.120629e-06,-3.6375266e-06,-1.2333608e-06,6.2872487e-06,5
1.8965944e-06,-1.2113131e-06,-5.037983e-06,-1.2384603e-06,-1.601132e-06,-4.7576043e-07,1.1234975e-05,-1.969037e-05,-1.0991628e-06,-3.6375266e-06,2.7719543e-07,8.469459e-06,5
2.9034838e-06,1.3130726e-07,-2.520245e-06,7.753887e-07,-2.2408008e-06,2.0421412e-06,1.3248824e-05,-8.943312e-06,1.2509057e-06,-3.301828e-06,-8.978381e-07,8.9731775e-06,5
4.74962e-06,1.6417781e-06,-6.739033e-07,1.4464442e-06,-1.7894619e-06,6.9951375e-07,1.3584182e-05,3.738778e-05,-4.2740783e-07,-4.9803207e-06,-1.4014723e-06,8.134104e-06,5
8.442095e-06,2.1451556e-06,-5.06054e-07,1.1104024e-06,-2.5878032e-06,-1.1466637e-06,1.660513e-05,6.794105e-05,-4.119913e-06,-9.3444005e-06,-8.980124e-07,7.630726e-06,5
1.0456078e-05,2.1449844e-06,-3.3820479e-07,1.9493052e-06,-3.5620003e-06,8.676918e-07,1.9458228e-05,6.626727e-05,-3.951887e-06,-1.3540633e-05,-8.980991e-07,8.973692e-06,5
1.0959417e-05,2.1448138e-06,2.6830814e-06,3.1239056e-06,-3.5032301e-06,3.5534433e-06,1.9290042e-05,5.4522523e-05,-2.441067e-06,-1.2029988e-05,-3.4159225e-06,1.0316659e-05,5
1.06235075e-05,1.4732457e-06,5.704368e-06,4.4663566e-06,-2.256014e-06,3.553608e-06,1.8114757e-05,5.1505944e-05,-1.4337961e-06,-8.673003e-06,-4.7588037e-06,8.638339e-06,5
9.616201e-06,1.4730762e-06,5.704368e-06,4.96956e-06,-6.735224e-07,1.3717324e-06,1.4925289e-05,5.5874727e-05,-4.265249e-07,-6.8266622e-06,-4.2553424e-06,6.624322e-06,5
1.0119537e-05,2.144305e-06,4.6972723e-06,4.2978177e-06,-3.3274506e-07,-8.1014315e-07,9.385927e-06,6.2257706e-05,1.923539e-06,-7.833757e-06,-2.4090862e-06,6.1209457e-06,5
1.2637063e-05,1.8084365e-06,2.5152322e-06,4.96887e-06,6.6993955e-08,-1.4813767e-06,4.182267e-06,6.645865e-05,1.2523157e-06,-8.001607e-06,-7.3067935e-07,6.2889694e-06,5
1.4986739e-05,1.8082685e-06,-1.177451e-06,5.80777e-06,-9.776651e-07,-6.419642e-07,3.2139621e-07,7.0323884e-05,-1.7687973e-06,-4.9803207e-06,2.7633263e-07,7.967634e-06,5
1.364373e-05,1.8081009e-06,-1.848848e-06,5.136028e-06,-8.2998554e-07,-8.0964975e-07,-3.3716208e-06,7.754611e-05,-3.4471168e-06,3.908549e-07,-3.951501e-07,8.974904e-06,5
9.279435e-06,4.651419e-07,-1.6809987e-06,5.1356815e-06,-4.7424547e-07,-1.1451833e-06,-5.218294e-06,8.3089835e-05,-2.7755482e-06,6.769126e-06,4.4401244e-07,8.63938e-06,5
3.572344e-06,-5.4212063e-07,-1.848848e-06,5.9745807e-06,-9.648874e-07,-6.4147093e-07,-7.064968e-06,7.554133e-05,-3.111076e-06,1.1804604e-05,1.1153243e-06,7.632459e-06,5
-3.4775412e-06,-7.101356e-07,-3.3594913e-06,6.309932e-06,-3.1520185e-06,8.693364e-07,-1.05901345e-05,5.003295e-05,-2.9430566e-06,1.8182875e-05,6.116934e-07,7.129086e-06,5
-1.0191729e-05,-1.8852471e-06,-3.3594913e-06,5.9738863e-06,-3.3589445e-06,1.8765949e-06,-1.4786698e-05,3.5434186e-06,-1.4322438e-06,2.825383e-05,7.794588e-07,5.6186173e-06,5
-1.4220329e-05,-5.074547e-06,-1.0096018e-06,6.1413875e-06,-1.1452021e-06,1.8767591e-06,-1.7976163e-05,-6.862705e-05,9.178153e-07,3.6478443e-05,4.4367746e-07,3.2689045e-06,5
-1.5563342e-05,-6.5853546e-06,4.1937246e-06,5.637491e-06,1.0800806e-06,3.2197186e-06,-2.0158535e-05,-0.00012770528,1.925079e-06,3.6478443e-05,-8.992006e-07,-8.79048e-08,5
-8.8495935e-06,-3.8999306e-06,1.0236297e-05,4.462199e-06,9.945236e-07,3.891279e-06,-1.7808974e-05,-0.000110579946,5.8245223e-07,2.8925226e-05,-2.2420772e-06,-1.0948249e-06,5
1.892536e-06,-8.7880693e-07,1.409683e-05,4.7975477e-06,-2.5611135e-09,1.2058562e-06,-1.0088238e-05,-3.4539535e-05,-1.5994208e-06,1.8182875e-05,-2.577858e-06,4.1599426e-07,5
1.1459721e-05,6.316731e-07,1.644672e-05,4.7971985e-06,-2.361473e-07,-1.367736e-07,-3.7102966e-06,3.0087129e-05,-2.4385006e-06,6.097729e-06,-1.738693e-06,-8.7376286e-08,5
1.5655729e-05,6.315107e-07,1.5103924e-05,2.4469596e-06,-1.0051257e-06,8.7048664e-07,-1.3607344e-06,5.0905142e-05,-1.4312399e-06,-6.9945113e-06,2.754161e-07,2.4849845e-07,5
1.4144861e-05,-7.114452e-07,1.3593282e-05,9.67195e-08,-3.3969566e-06,2.884842e-06,-6.8966443e-07,4.2853084e-05,-1.263226e-06,-2.0254602e-05,1.2824285e-06,3.4378115e-06,5
1.09555e-05,1.2763843e-07,1.4768227e-05,-1.917821e-06,-4.9316004e-06,6.577689e-06,1.9955971e-06,3.0772644e-05,-1.4309107e-06,-2.680072e-05,4.4310212e-07,5.9557256e-06,5
8.437536e-06,2.1416695e-06,1.5775322e-05,-3.0931178e-06,-3.9940433e-06,9.09559e-06,5.6879544e-06,2.4902629e-05,4.1559477e-07,-2.7639968e-05,-2.2837592e-07,6.7951514e-06,5
7.094515e-06,3.4843022e-06,1.5607473e-05,-2.92562e-06,-4.0105596e-07,1.0774247e-05,9.044614e-06,2.7257222e-05,4.2762904e-06,-2.6129324e-05,6.107893e-07,4.445438e-06,5
5.583644e-06,4.826936e-06,1.6111022e-05,-1.5831768e-06,2.7690726e-06,1.0942262e-05,9.547837e-06,3.1458163e-05,7.969135e-06,-2.4450832e-05,2.4570497e-06,1.5921803e-06,5
5.247717e-06,7.512366e-06,1.6950265e-05,9.342103e-07,2.418716e-06,8.592536e-06,8.708268e-06,3.3980603e-05,8.640694e-06,-2.4115134e-05,1.7855737e-06,2.9351527e-06,5
6.2545832e-06,9.526399e-06,1.8460909e-05,2.444501e-06,2.786193e-06,6.57851e-06,8.540095e-06,3.918864e-05,6.6266643e-06,-2.3779436e-05,-1.4036423e-06,4.9495225e-06,5
7.932846e-06,1.1876128e-05,2.0978649e-05,3.4512432e-06,4.41159e-06,5.907276e-06,1.0721811e-05,4.624301e-05,4.948332e-06,-2.1933094e-05,-3.753611e-06,3.9426054e-06,5
9.275408e-06,1.64079e-05,1.812521e-05,4.122287e-06,5.29205e-06,6.9145362e-06,1.1728587e-05,4.7254813e-05,4.6127925e-06,-2.1093847e-05,-2.0751972e-06,2.2642917e-06,5
1.1457216e-05,1.892548e-05,8.054257e-06,2.4434416e-06,6.333062e-06,8.257494e-06,7.867733e-06,3.8195656e-05,4.94865e-06,-2.0254602e-05,-6.108537e-08,2.0966222e-06,5
1.2464079e-05,1.707898e-05,-2.8559432e-06,-1.2495963e-06,7.0620904e-06,8.593356e-06,2.3283858e-06,1.9065548e-05,6.6273005e-06,-1.7065466e-05,-3.9686415e-07,5.861599e-07,5
1.3806639e-05,1.4225391e-05,-6.7164756e-06,-2.0891955e-06,7.1338513e-06,8.257823e-06,-8.610693e-07,-2.0787502e-06,8.6416485e-06,-7.3302103e-06,-1.7397357e-06,-5.88605e-07,5
1.6491991e-05,9.189756e-06,-6.3807774e-06,-1.2503051e-06,6.70389e-06,9.600781e-06,-1.7006347e-06,-1.7516175e-05,1.0320297e-05,9.119016e-06,-2.7469098e-06,-4.2057567e-07,5
1.6659606e-05,7.9714e-07,-9.234214e-06,-2.4356413e-07,5.5332935e-06,9.600944e-06,-2.7080475e-06,-3.093941e-05,8.641961e-06,2.1875558e-05,-2.4112899e-06,-1.091792e-06,5
1.1959591e-05,-7.259779e-06,-1.2591199e-05,-1.2510155e-06,4.4209255e-06,7.9226165e-06,-2.5405166e-06,-5.191586e-05,3.2709406e-06,2.37219e-05,-6.1476456e-08,-1.7630082e-06,5
3.5668909e-06,-1.5652395e-05,-1.30947465e-05,-4.272656e-06,3.5459914e-06,6.0764382e-06,-1.7015892e-06,-7.0542425e-05,-7.572861e-07,1.7847176e-05,2.7414418e-07,-2.6020732e-06,5
-3.3151664e-06,-2.2366517e-05,-9.569912e-06,-5.1122593e-06,2.8545696e-06,4.565959e-06,-8.6266004e-07,-7.2551906e-05,-2.535842e-07,1.0461809e-05,-6.163089e-08,-2.93759e-06,5
-6.1688415e-06,-2.3038068e-05,-1.6809987e-06,-1.5877818e-06,4.38315e-06,2.5519319e-06,-1.9158024e-07,-4.3005737e-05,1.7607592e-06,4.754935e-06,-6.170768e-08,-3.1052582e-06,5
-1.1204558e-05,-1.9345538e-05,4.865122e-06,1.7688465e-06,6.4116157e-06,5.3790376e-07,-1.0311408e-06,1.1382122e-05,1.7609117e-06,-2.4625824e-06,-7.331832e-07,-5.119267e-06,5
-1.9261563e-05,-1.5653006e-05,7.718559e-06,3.1112822e-06,7.4146956e-06,2.0236959e-07,-5.059838e-06,4.2606785e-05,2.5042021e-07,-1.1862139e-05,-6.1860405e-08,-5.4547827e-06,5
-2.1275993e-05,-1.4981761e-05,9.061353e-06,2.1038297e-06,7.541341e-06,5.382314e-07,-5.228001e-06,3.153344e-05,-2.4350168e-06,-2.0758149e-05,-6.193633e-08,-3.7761074e-06,5
-1.3219474e-05,-1.4142665e-05,4.361574e-06,1.5999248e-06,6.39855e-06,-4.6869883e-07,3.1070834e-07,1.5088915e-05,-6.9667954e-06,-2.696857e-05,-1.2369579e-06,-2.0974321e-06,5
-3.1487646e-06,-1.1625078e-05,-1.30947465e-05,2.7745104e-06,6.2755653e-06,-6.363841e-07,5.6815725e-06,2.9192954e-05,-7.638043e-06,-2.8143515e-05,-2.4119784e-06,-2.9364953e-06,5
5.7470024e-06,-8.603941e-06,-3.726504e-05,2.2706038e-06,5.6849367e-06,-6.362203e-07,6.016959e-06,7.518835e-05,-3.2738137e-06,-2.5122228e-05,-2.5799025e-06,-3.943408e-06,5
1.0950083e-05,-7.093447e-06,-5.1028677e-05,-2.0938342e-06,3.0089186e-06,-1.3250961e-07,6.016647e-06,0.00013427598,1.0904149e-06,-2.1597394e-05,-2.0764282e-06,-3.9432243e-06,5
1.4642521e-05,-4.575858e-06,-4.56575e-05,-5.9547265e-06,2.5912172e-07,-1.1394409e-06,9.3733215e-06,0.00018983879,3.943999e-06,-1.4883426e-05,-2.4122028e-06,-4.1108897e-06,5
1.8167108e-05,-1.2190213e-06,-2.585129e-05,-6.7943333e-06,-2.3567752e-06,-3.8248654e-06,1.1387203e-05,0.00022458828,7.301131e-06,-5.3160193e-06,-2.412277e-06,-3.4393083e-06,5
1.9677504e-05,2.6413636e-06,-7.89142e-06,-4.9483515e-06,-4.0780983e-06,-5.6710437e-06,1.0883342e-05,0.00021082934,9.819016e-06,4.0835384e-06,-2.748049e-06,-2.4320286e-06,5
1.6991668e-05,4.8232555e-06,-1.6809987e-06,-5.84631e-07,-3.7655602e-06,-5.167333e-06,8.700995e-06,0.00012338458,9.651312e-06,1.3986643e-05,-2.5802735e-06,-4.4460344e-06,5
8.934654e-06,4.3195614e-06,-3.3594913e-06,1.5970481e-06,-3.099978e-07,-3.1529785e-06,6.6864945e-06,9.251809e-06,6.126623e-06,2.0868463e-05,-2.2446488e-06,-5.9564927e-06,5
-1.3044006e-06,1.6338261e-06,-2.520245e-06,2.5389195e-07,1.4359623e-06,-1.3064739e-06,8.868227e-06,-4.646944e-05,2.5204398e-07,2.5903939e-05,-9.0192793e-07,-5.788458e-06,5
-8.35432e-06,-3.8050982e-07,2.8509307e-06,-1.0892636e-06,-5.973584e-07,-2.1455553e-06,1.1217811e-05,-2.749777e-05,-4.1118924e-06,2.9932322e-05,-2.0769437e-06,-5.284725e-06,5
-1.3054349e-05,4.5859184e-07,7.5507096e-06,-1.7610215e-06,-3.9683873e-06,-5.502377e-06,9.539011e-06,-1.9436307e-05,-5.9580907e-06,3.0939416e-05,-2.0770162e-06,-5.284539e-06,5
-1.4565246e-05,1.6333901e-06,1.3593282e-05,-1.7613838e-06,-6.2864183e-06,-5.8379114e-06,8.028063e-06,-6.340811e-05,-4.4473068e-06,2.8589528e-05,-2.3074742e-07,-6.4592978e-06,5
-1.0872816e-05,2.1367948e-06,2.3832086e-05,-1.0903505e-06,-6.0047214e-06,-3.487859e-06,8.027758e-06,-9.798035e-05,-4.1878346e-07,2.6071788e-05,-7.343683e-07,-7.130508e-06,5
-8.85888e-06,2.640199e-06,3.6756475e-05,-2.5146647e-07,-4.620415e-06,-2.9841485e-06,2.9919743e-06,-0.00010217188,4.2811357e-06,2.573609e-05,-2.7486299e-06,-6.7946235e-06,5
-1.0537628e-05,4.654246e-06,4.7666676e-05,-4.1967883e-07,-3.0748113e-06,-5.166025e-06,-6.4078868e-06,-0.00011945565,5.791919e-06,2.5064694e-05,-4.0914965e-06,-5.787341e-06,5
-1.2552075e-05,5.325499e-06,4.699528e-05,-5.878915e-07,-2.8504737e-06,-7.51575e-06,-1.278646e-05,-0.00015839198,3.2743196e-06,2.0197065e-05,-3.9237166e-06,-3.1015663e-06,5
-9.195347e-06,4.653961e-06,3.5245834e-05,-4.2040662e-07,-1.6043001e-06,-6.5084923e-06,-1.3793859e-05,-0.00017466866,4.2102099e-07,1.1468905e-05,-2.9166922e-06,-1.7585845e-06,5
-2.4816352e-06,3.4788743e-06,2.3832086e-05,1.9291178e-06,-1.8314822e-08,-2.479946e-06,-1.5808351e-05,-0.00014461894,7.5685784e-07,2.572895e-06,-1.4061196e-06,-3.4368893e-06,5
1.0429387e-06,1.80024e-06,1.7453815e-05,5.7892853e-06,-6.8608455e-07,-2.9774287e-07,-2.2186925e-05,-9.711291e-05,3.2747332e-06,-3.133979e-06,-7.3479384e-07,-4.2759475e-06,5
-1.307211e-06,1.2160743e-07,1.4768227e-05,7.1317145e-06,-1.9677852e-06,-1.1368256e-06,-3.225818e-05,-7.528781e-05,5.45691e-06,-2.6304313e-06,-6.3464725e-08,-3.1008149e-06,5
-6.342948e-06,-1.2213256e-06,1.3257583e-05,4.6136106e-06,-3.344388e-06,-5.1650454e-06,-3.6790407e-05,-7.662591e-05,5.121347e-06,5.5156498e-08,-1.0706314e-06,-2.7649273e-06,5
-5.8396613e-06,-2.1437023e-07,9.229202e-06,1.9276567e-06,-2.18931e-06,-7.1790723e-06,-2.940534e-05,-7.0410795e-05,2.268045e-06,5.587042e-07,-1.4063987e-06,-3.4361358e-06,5
-1.4758447e-06,1.1282847e-06,4.361574e-06,4.1664646e-07,-1.6699341e-06,-6.843211e-06,-1.8831139e-05,-6.7049106e-05,1.764632e-06,-1.4554867e-06,-2.3152272e-07,-4.7787407e-06,5
-1.3082589e-06,-2.1464781e-07,1.1724384e-06,-2.551161e-07,-2.9970952e-06,-7.178746e-06,-1.3460261e-05,-6.805151e-05,2.9397102e-06,-2.9661298e-06,4.3980552e-07,-5.1142497e-06,5
-5.336904e-06,-2.9003738e-06,-8.417525e-07,-1.933975e-06,-4.678519e-06,-9.864172e-06,-1.4131953e-05,-3.76661e-05,2.604145e-06,-6.162405e-07,-1.0709069e-06,-4.4426633e-06,5
-1.1211892e-05,-5.9217973e-06,-2.520245e-06,-3.1092882e-06,-5.393238e-06,-1.0871103e-05,-1.3796553e-05,2.4107112e-05,1.597182e-06,2.4050457e-06,-2.749467e-06,-2.2604336e-06,5
-1.4569143e-05,-8.271823e-06,-3.6951894e-06,-2.606108e-06,-4.353552e-06,-7.5139546e-06,-9.43277e-06,6.825616e-05,1.2616143e-06,4.4192366e-06,-7.35345e-07,-2.4280926e-06,5
-1.3394464e-05,-6.929166e-06,-5.3736817e-06,-1.5993799e-06,-2.2928784e-06,-2.4783149e-06,-3.3904928e-06,6.826085e-05,-4.1674696e-07,4.2513875e-06,1.6144784e-06,-3.4349976e-06,5
-1.0876994e-05,-2.5652216e-06,-7.723571e-06,-2.6068442e-06,1.1433739e-06,3.9586197e-08,3.9945826e-06,4.9802133e-05,-1.0880137e-06,4.754935e-06,2.716171e-07,-2.4277115e-06,5
-8.863071e-06,-4.761892e-08,-1.0409159e-05,-3.1107609e-06,3.3345323e-06,-2.9594887e-07,9.701161e-06,4.7792633e-05,-7.521853e-07,7.440523e-06,4.393991e-07,-7.763056e-08,5
-5.1706575e-06,-2.1560277e-07,-1.1751954e-05,-2.1040328e-06,3.1039867e-06,3.991203e-08,1.2218606e-05,6.8946334e-05,-4.1090416e-06,8.447619e-06,1.7821263e-06,1.9367506e-06,5
-4.7114878e-07,-2.5656261e-06,-1.3766144e-05,-2.6079513e-06,1.4946319e-06,2.2221138e-06,1.2721861e-05,9.4631956e-05,-8.3051455e-06,7.7762215e-06,1.4463619e-06,2.2726401e-06,5
1.2070733e-06,-3.908554e-06,-1.5444637e-05,-6.804552e-06,1.0812012e-07,2.7258268e-06,1.1378776e-05,0.00010453975,-5.619429e-06,7.608372e-06,-7.3574626e-07,1.6014358e-06,5
-1.3599357e-07,-2.565893e-06,-1.5780335e-05,-1.0497605e-05,-5.856253e-07,2.2224394e-06,9.364293e-06,8.473823e-05,8.757156e-08,8.615468e-06,-7.358121e-07,2.588337e-07,5
-3.1575532e-06,-8.875329e-07,-1.4101842e-05,-9.658728e-06,-1.9974066e-06,1.5512063e-06,4.999922e-06,2.0960217e-05,2.101888e-06,7.2726734e-06,-6.447867e-08,2.590259e-07,5
-5.1720167e-06,1.194289e-07,-1.30947465e-05,-7.644908e-06,-6.126834e-06,-1.134218e-06,-2.553583e-06,-7.856969e-05,1.0949179e-06,3.0764427e-06,-7.3594293e-07,-2.443286e-07,5
-5.34014e-06,-8.877968e-07,-1.1919803e-05,-1.5366346e-05,-1.000665e-05,-5.1624384e-06,-9.435694e-06,-0.00017759606,-7.990166e-08,-1.4554867e-06,-6.460894e-08,-4.1198584e-07,5
-5.5082646e-06,-1.7271749e-06,-9.9056115e-06,-2.99696e-05,-1.0187929e-05,-6.6729185e-06,-1.1114475e-05,-0.00022005722,-7.97778e-08,-4.9803207e-06,2.1173653e-06,-5.7964183e-07,5
-4.6692953e-06,-7.202096e-07,-7.052174e-06,-3.7858885e-05,-6.1275787e-06,-6.00136e-06,-8.597023e-06,-0.00017574032,-4.1535364e-07,-7.3302103e-06,3.963643e-06,-1.9222425e-06,5
-2.8232305e-06,1.7973973e-06,-3.6951894e-06,-3.1816682e-05,-9.791806e-07,-5.4976485e-06,-6.415271e-06,-8.878973e-05,-4.152312e-07,-9.6800995e-06,3.963579e-06,-2.089898e-06,5
1.5405727e-06,4.147159e-06,-2.3523958e-06,-1.6542777e-05,1.0768075e-06,-3.4832947e-06,-4.401367e-06,-2.5338035e-05,-1.7579034e-06,-1.0855045e-05,1.445777e-06,-2.4254034e-06,5
6.072223e-06,5.489823e-06,-2.0166972e-06,1.0810202e-06,1.1128402e-06,-1.9724894e-06,-2.0517627e-06,-5.023589e-06,-2.2613303e-06,-1.1358591e-05,-1.4077245e-06,-4.103702e-06,5
9.428929e-06,6.161092e-06,-1.6809987e-06,1.6858476e-05,6.646323e-07,-1.4687797e-06,-3.735572e-07,-4.515354e-06,-4.1486805e-07,-1.4547726e-05,-2.7505819e-06,-4.1035073e-06,5
1.2617784e-05,8.007305e-06,-1.6809987e-06,2.827185e-05,2.7495028e-06,-7.972193e-07,1.64035e-06,2.0354528e-06,2.10299e-06,-1.807256e-05,-1.5756998e-06,-4.1033127e-06,5
1.4463844e-05,8.175027e-06,-3.0237927e-06,3.2635555e-05,5.3443555e-06,5.457361e-07,2.9828589e-06,2.3021294e-05,2.606657e-06,-1.9415354e-05,6.062776e-07,-4.942364e-06,5
1.4295712e-05,5.6571607e-06,-4.030888e-06,3.1628086e-05,6.522213e-06,1.5529945e-06,3.3182735e-06,4.954616e-05,1.9353781e-06,-1.7233315e-05,1.9490092e-06,-4.270772e-06,5
1.0267048e-05,2.1322014e-06,-5.037983e-06,2.8606426e-05,6.413958e-06,1.2174588e-06,2.3108955e-06,6.4489424e-05,-7.8694704e-08,-1.639407e-05,1.2775491e-06,-1.752838e-06,5
5.3150825e-07,1.1788355e-07,-6.7164756e-06,2.4913368e-05,5.0392355e-06,8.8192314e-07,2.9642152e-07,7.171163e-05,-3.9391107e-06,-1.7065466e-05,-1.0724017e-06,-9.133963e-07,5
-9.37188e-06,-2.1793979e-07,-7.723571e-06,2.1891707e-05,4.683844e-06,-7.9640756e-07,1.638936e-06,7.406621e-05,-5.953185e-06,-1.404418e-05,-2.5831062e-06,-2.4238436e-06,5
-1.1218508e-05,-5.537626e-07,-7.89142e-06,1.8198647e-05,5.8725027e-06,-2.4747374e-06,6.5062823e-06,7.2560244e-05,-5.9530694e-06,-8.673003e-06,-1.7439204e-06,-3.4307427e-06,5
-3.8334283e-06,-1.5609829e-06,-9.402063e-06,1.1148603e-05,8.407218e-06,-1.8031791e-06,9.023741e-06,6.6690205e-05,-6.7922015e-06,-5.819567e-06,-7.3688733e-07,-3.7662444e-06,5
2.2088577e-06,-7.2185964e-07,-1.1919803e-05,1.4129723e-06,9.748175e-06,8.82572e-07,9.694859e-06,5.7295325e-05,-8.470581e-06,-4.9803207e-06,-1.7440419e-06,-5.780239e-06,5
4.558459e-06,2.8028512e-06,-1.5444637e-05,-4.965676e-06,9.702748e-06,3.904019e-06,1.0869523e-05,4.2025727e-05,-8.806165e-06,-3.9732254e-06,-2.0798002e-06,-7.122836e-06,5
3.718923e-06,3.9776733e-06,-1.7626675e-05,-4.4625062e-06,8.392963e-06,5.582673e-06,1.1876343e-05,1.8363666e-05,-4.6098226e-06,-2.6304313e-06,-3.0869564e-06,-6.2833924e-06,5
1.0330461e-06,1.6276603e-06,-1.5276788e-05,-2.6665126e-07,5.9233244e-06,5.2471373e-06,1.1036816e-05,-9.662475e-06,1.2650133e-06,-2.7982803e-06,-3.590563e-06,-4.6047026e-06,5
-8.135854e-07,-1.5615964e-06,-1.0744858e-05,3.7613522e-06,3.6512233e-06,3.5688072e-06,7.343857e-06,-3.8360016e-05,2.1043709e-06,-4.308924e-06,-1.4085836e-06,-3.0938622e-06,5
8.646152e-07,-3.2402095e-06,-8.227119e-06,5.7751654e-06,3.659881e-06,2.8975733e-06,5.6650897e-06,-6.286133e-05,-9.1680516e-07,-4.308924e-06,-4.0154774e-07,-2.7579654e-06,5
3.3820609e-06,-1.897537e-06,-7.052174e-06,6.110486e-06,5.109319e-06,3.5691312e-06,4.9934183e-06,-7.7123834e-05,-4.273679e-06,-1.4554867e-06,2.697914e-07,-3.0934661e-06,5
4.892412e-06,1.627177e-06,-5.7093803e-06,4.599465e-06,4.338684e-06,2.897897e-06,1.6361583e-06,-7.3930016e-05,-6.9591583e-06,2.0693474e-06,7.732798e-07,-5.1074585e-06,5
5.899213e-06,2.4663054e-06,-3.3594913e-06,3.7598386e-06,1.6084962e-06,4.073002e-06,-2.7281947e-06,-4.3041084e-05,-5.448407e-06,6.097729e-06,2.4517135e-06,-5.1072598e-06,5
5.3953704e-06,-1.2264975e-06,-2.1845465e-06,3.0880624e-06,2.2583263e-06,6.423055e-06,-7.763947e-06,1.16824485e-05,-1.4199182e-06,1.2308151e-05,4.4658464e-06,-4.4356634e-06,5
4.8915276e-06,-6.597792e-06,-2.3523958e-06,1.7448899e-06,4.371681e-06,5.5839687e-06,-1.1121205e-05,6.06991e-05,1.6014759e-06,1.8182875e-05,5.305035e-06,-4.099766e-06,5
2.5413412e-06,-8.276403e-06,-2.520245e-06,-2.696809e-07,5.4449342e-06,2.5628453e-06,-1.2128572e-05,6.573926e-05,1.9372803e-06,2.153986e-05,3.1229383e-06,-3.4281695e-06,5
-1.6551871e-06,-5.9266304e-06,-3.191642e-06,-4.379101e-07,3.2434266e-06,2.898706e-06,-8.268311e-06,2.0760333e-05,1.2659887e-06,2.1204161e-05,4.3729327e-07,-1.7494773e-06,5
-1.8233343e-06,-1.898366e-06,-1.848848e-06,1.4080514e-06,2.3913713e-06,6.5915506e-06,-3.065253e-06,-2.858267e-05,2.944586e-06,1.8182875e-05,-1.2412565e-06,1.2720087e-06,5
-8.165373e-07,1.1228046e-06,1.6759861e-06,1.9112176e-06,2.2556278e-06,6.759561e-06,-7.15636e-07,-3.025649e-05,3.6160873e-06,1.2476001e-05,-1.9127092e-06,2.279304e-06,5
-1.3203861e-06,1.961935e-06,3.0187798e-06,-2.7120365e-07,1.192654e-06,4.577683e-06,9.625886e-07,4.996524e-06,1.6020001e-06,3.7478399e-06,-1.5770673e-06,2.1116555e-06,5
-2.3277807e-06,1.1225736e-06,1.8438353e-06,-1.4465302e-06,7.3117803e-07,3.5707483e-06,2.6408109e-06,3.1857075e-05,-9.156365e-07,-6.155265e-06,-2.7520682e-06,1.6083092e-06,5
-1.8245353e-06,4.5106293e-07,5.0104137e-07,1.070827e-06,9.361609e-07,3.2352118e-06,4.822584e-06,3.488303e-05,-9.155345e-07,-1.3540633e-05,-4.7663148e-06,1.2728111e-06,5
1.8935239e-07,2.1294409e-06,1.6759861e-06,1.7418419e-06,9.903455e-07,1.5568802e-06,5.997261e-06,2.884513e-05,-5.797342e-07,-1.7736862e-05,-2.7521794e-06,1.6087114e-06,5
2.0353912e-06,3.807818e-06,8.3673984e-07,-2.7273163e-07,-1.1215866e-06,1.2213436e-06,4.989899e-06,2.4821418e-05,2.5961236e-07,-1.9079656e-05,9.4044856e-07,1.9446109e-06,5
4.0492782e-06,4.646952e-06,5.0104137e-07,-9.4451246e-07,-3.2247221e-06,-1.2128905e-07,4.989633e-06,2.5161786e-05,2.2739027e-06,-1.6226219e-05,1.7796408e-06,1.9448128e-06,5
3.5454254e-06,5.1503866e-06,2.1795338e-06,-1.6162916e-06,-4.397458e-06,-4.5682575e-07,5.9964627e-06,2.8523438e-05,3.9524944e-06,-1.30370845e-05,1.9474353e-06,2.6652268e-07,5
3.5451196e-06,5.1502743e-06,3.186629e-06,-2.95947e-06,-5.3464782e-06,5.5042955e-07,7.33899e-06,2.8528106e-05,3.7847437e-06,-9.5122505e-06,2.4509282e-06,-1.2439191e-06,5
5.2233063e-06,4.478767e-06,3.5223277e-06,-3.9669476e-06,-5.2086743e-06,4.7043752e-08,7.0030283e-06,2.5679336e-05,3.6169924e-06,-3.9732254e-06,9.402312e-07,-1.0758665e-06,5
6.2300937e-06,3.135862e-06,3.3544784e-06,-4.974428e-06,-3.5496864e-06,-1.2955901e-06,6.4992178e-06,2.1823469e-05,3.9527877e-06,5.587042e-07,-1.0740134e-06,2.671302e-07,5
5.7262387e-06,2.9679024e-06,3.0187798e-06,-4.639114e-06,-1.3560538e-06,-2.6382208e-06,4.652615e-06,1.7464052e-05,2.4422416e-06,2.9085936e-06,-1.4097648e-06,2.2815232e-06,5
7.572271e-06,4.3105865e-06,2.8509307e-06,-3.296705e-06,-6.66344e-07,-2.6380599e-06,2.1346134e-06,1.3943883e-05,7.6384464e-07,5.0906337e-06,1.0082626e-07,3.6245215e-06,5
1.0257549e-05,4.1426283e-06,3.0187798e-06,-3.1292411e-06,-1.6741724e-06,-7.915578e-07,4.5586228e-07,1.1095109e-05,2.106733e-06,6.9369753e-06,6.043205e-07,4.46397e-06,5
1.00893885e-05,1.4569305e-06,1.8438353e-06,-3.1296265e-06,-1.7216975e-06,8.870962e-07,2.8774875e-07,8.414184e-06,5.295963e-06,8.615468e-06,-9.063759e-07,4.2963247e-06,5
5.5571472e-06,-1.2287649e-06,-1.7035555e-07,-1.7872172e-06,-1.5204336e-06,-1.2947849e-06,-7.196051e-07,5.397559e-06,5.631755e-06,6.769126e-06,-2.0813711e-06,5.3036247e-06,5
1.85659e-07,-2.2359686e-06,-2.8559432e-06,7.301348e-07,-2.9813625e-06,-2.973116e-06,-3.0697513e-06,2.380934e-06,2.6105615e-06,4.0835384e-06,-2.7528208e-06,4.632433e-06,5
-4.860502e-07,-2.2360757e-06,-3.0237927e-06,8.9759845e-07,-5.4227717e-06,-1.9658592e-06,-3.4057118e-06,1.0428001e-06,-5.784819e-07,4.754935e-06,-2.0814743e-06,3.6255415e-06,5
5.2073074e-07,-2.2361826e-06,-2.506315e-09,-1.2848292e-06,-6.08598e-06,-1.4621512e-06,-1.0560785e-06,1.8867056e-06,-4.1054156e-07,7.440523e-06,-6.733468e-08,3.4578973e-06,5
-1.5098112e-07,-2.0684397e-06,2.8509307e-06,-2.9637092e-06,-4.802916e-06,-2.9726334e-06,1.4614034e-06,3.5698572e-06,2.2751367e-06,7.7762215e-06,9.3970834e-07,4.968745e-06,5
-1.3262418e-06,-2.2363943e-06,2.347383e-06,-3.1319455e-06,-3.2241653e-06,-2.9724727e-06,-2.1734711e-07,6.595802e-06,3.953719e-06,7.440523e-06,7.718087e-07,8.997332e-06,5
3.5193364e-07,-1.2294033e-06,3.3319216e-07,-2.460935e-06,-2.4303956e-06,-9.5812e-07,-2.063943e-06,8.782497e-06,3.953808e-06,8.447619e-06,1.2753053e-06,1.1515275e-05,5
3.2050543e-06,1.4560792e-06,8.3673984e-07,-6.14981e-07,-1.4441166e-06,-1.1871344e-07,-1.7284999e-06,8.619305e-06,2.2754043e-06,7.440523e-06,1.9466531e-06,1.0340538e-05,5
4.54753e-06,4.4772623e-06,3.0187798e-06,7.2742375e-07,1.6600983e-07,-6.2209983e-07,-2.181123e-07,7.616864e-06,2.443342e-06,7.1048244e-06,2.4501505e-06,7.655155e-06,5
4.88291e-06,4.1414605e-06,3.6901768e-06,-2.8005977e-07,9.029396e-07,-2.8624132e-07,1.963675e-06,5.271629e-06,2.6112782e-06,7.7762215e-06,4.128594e-06,7.319663e-06,5
5.386137e-06,2.6307148e-06,2.8509307e-06,-1.9589406e-06,5.475607e-07,-4.5392983e-07,3.641913e-06,3.9334886e-06,9.328722e-07,7.440523e-06,5.807037e-06,8.159116e-06,5
7.567857e-06,2.1270644e-06,2.347383e-06,-3.3021247e-06,-3.0387562e-07,-1.18071384e-07,4.6487585e-06,5.7844823e-06,-5.776852e-07,5.0906337e-06,5.47129e-06,7.655774e-06,5
9.413877e-06,1.7912625e-06,2.6830814e-06,-2.9668163e-06,1.5747385e-06,-7.89308e-07,3.305711e-06,9.146119e-06,-5.7760025e-07,2.0693474e-06,3.4570503e-06,9.670172e-06,5
8.742158e-06,1.1197652e-06,1.6759861e-06,-1.2887131e-06,3.3642339e-06,-1.9640927e-06,9.555731e-07,1.0325715e-05,1.6045243e-06,2.4050457e-06,1.2749609e-06,1.000608e-05,5
7.56689e-06,7.8396647e-07,5.0104137e-07,3.8938882e-07,3.5744138e-06,-2.4674794e-06,9.553228e-07,8.819721e-06,2.7795522e-06,5.258483e-06,9.3921494e-07,6.145753e-06,5
6.223772e-06,1.4552622e-06,-1.177451e-06,5.3300408e-08,1.9341849e-06,-2.29947e-06,-3.8772276e-07,3.956742e-06,1.2689916e-06,4.754935e-06,2.7855083e-06,1.6140316e-06,5
-4.905224e-07,1.1194645e-06,-1.177451e-06,2.207587e-07,-1.201925e-06,-3.809953e-06,-5.4234474e-06,-2.7525791e-06,-7.371949e-08,1.5657996e-06,3.792558e-06,-1.4070474e-06,5
-1.1736748e-05,-1.7340716e-06,-3.3820479e-07,1.3953137e-06,-3.650148e-06,-4.6490386e-06,-1.0459173e-05,-8.958354e-06,-2.7592262e-06,-3.9732254e-06,4.631757e-06,-9.0329127e-07,5
-1.9625988e-05,-6.09825e-06,-1.0096018e-06,1.5627713e-06,-2.5623392e-06,-2.4668386e-06,-1.1298667e-05,-1.1639296e-05,-3.0948445e-06,-7.4980594e-06,3.7924638e-06,2.2860522e-06,5
-2.0297712e-05,-6.7697456e-06,-1.7035555e-07,-9.553603e-07,-3.7878763e-07,-7.881866e-07,-8.949024e-06,-1.0963254e-05,-2.413264e-07,-6.490964e-06,1.6103774e-06,5.307548e-06,5
-1.3080523e-05,-1.9022159e-06,1.1724384e-06,-3.4734903e-06,-1.3293424e-06,-1.2915756e-06,-7.774326e-06,-6.9302278e-06,9.4450876e-08,-2.4625824e-06,-7.3955994e-07,7.993343e-06,5
-4.5205397e-06,3.636712e-06,5.0104137e-07,-2.4667866e-06,-4.0430905e-06,-1.6271136e-06,-6.096078e-06,-1.3865596e-06,-3.7660025e-06,2.230058e-07,-1.0753039e-06,7.993553e-06,5
-4.924886e-07,4.1401645e-06,-6.739033e-07,7.2195587e-07,-5.2373384e-06,-7.8770677e-07,-4.2499823e-06,8.0012285e-07,-5.4444176e-06,5.5156498e-08,4.3529448e-07,5.9795716e-06,5
1.1856738e-06,2.1258777e-06,-3.0237927e-06,2.400056e-06,-5.0600224e-06,-1.962492e-06,-2.0681855e-06,2.4832564e-06,-4.1015464e-06,-6.162405e-07,1.2744941e-06,3.965591e-06,5
1.5210404e-06,7.8298837e-07,-4.3665864e-06,2.0639638e-06,-5.040388e-06,-2.801577e-06,6.171601e-07,5.8448804e-06,-2.08728e-06,-1.2876374e-06,2.6735506e-07,5.308595e-06,5
1.0064147e-08,1.4542895e-06,-5.541531e-06,7.2077637e-07,-5.0400045e-06,-2.8014174e-06,2.1275584e-06,7.695862e-06,7.6623354e-07,-1.623336e-06,-7.397867e-07,6.987298e-06,5
-8.295139e-07,1.1184973e-06,-7.2200237e-06,1.2239306e-06,-5.5931623e-06,-2.4655596e-06,2.7987135e-06,8.204049e-06,9.3415764e-07,-1.9590343e-06,1.1065108e-06,5.9804115e-06,5
-6.619988e-07,-5.600885e-07,-7.555722e-06,2.7341796e-06,-5.7272086e-06,-6.19058e-07,2.6306232e-06,1.0222878e-05,-2.7584513e-06,-6.162405e-07,3.1206587e-06,2.623638e-06,5
-3.1800735e-06,-2.9100718e-06,-6.3807774e-06,4.244428e-06,-3.9973934e-06,-1.1224464e-06,-2.2305547e-07,9.052568e-06,-5.4439656e-06,5.587042e-07,2.2813679e-06,-7.3313606e-07,5
-6.537394e-06,-3.2458624e-06,-2.688094e-06,3.9083343e-06,-2.4118538e-06,-4.311423e-06,-2.5731824e-06,6.203766e-06,-5.443893e-06,1.5657996e-06,9.928521e-08,-9.00774e-07,5
-5.8663313e-06,-8.960646e-07,1.3402876e-06,2.9008445e-06,-2.0684474e-06,-5.1505103e-06,-1.5663276e-06,4.5299084e-06,-5.2759715e-06,1.5657996e-06,-4.043071e-07,1.2814774e-06,5
-3.1810825e-06,2.460829e-06,3.0187798e-06,3.0682982e-06,-9.517768e-07,-2.464762e-06,1.119023e-06,5.8773344e-06,-6.4508454e-06,1.5657996e-06,1.4419929e-06,4.302975e-06,5
-4.9583144e-07,3.8035298e-06,2.347383e-06,3.5714506e-06,2.9079754e-07,-1.1471362e-07,1.790181e-06,1.17566915e-05,-6.4507744e-06,3.4121413e-06,2.7847423e-06,6.653078e-06,5
3.1965128e-06,3.1320433e-06,2.0116845e-06,3.0675067e-06,2.444483e-07,1.5639376e-06,6.1500094e-07,1.7468197e-05,-3.7651155e-06,3.5799906e-06,1.9454549e-06,4.1355497e-06,5
6.5531585e-06,2.7962553e-06,3.0187798e-06,4.4099056e-06,5.650563e-08,1.06055e-06,-1.5672775e-06,2.116551e-05,-7.4376015e-07,3.0764427e-06,2.6692075e-07,-8.9971496e-07,5
6.552818e-06,2.4604678e-06,5.032971e-06,5.0809062e-06,-8.5076977e-07,-7.8563284e-07,-2.7424562e-06,2.2512933e-05,5.991014e-07,2.7407443e-06,6.0257696e-07,-4.7600347e-06,5
5.3775316e-06,1.1048794e-07,4.6972723e-06,1.7235243e-06,-3.3035828e-06,-9.533227e-07,-1.3998992e-06,2.1678314e-05,1.1027174e-06,2.7407443e-06,2.4488766e-06,-7.109711e-06,5
5.2093405e-06,-5.260775e-06,-1.0096018e-06,-4.655145e-06,-5.0020003e-06,-4.4961556e-07,-1.4001336e-06,1.6983162e-05,2.613428e-06,3.7478399e-06,1.6095903e-06,-8.787991e-06,5
8.4491757e-07,-7.2750545e-06,-5.2058326e-06,-7.8446765e-06,-4.342169e-06,-1.4565535e-06,-2.2396123e-06,8.931024e-06,2.4456454e-06,5.258483e-06,-2.2509846e-06,-8.955627e-06,5
-4.526601e-06,-4.9252526e-06,-1.6809987e-06,-7.005829e-06,-3.974001e-06,-2.2956394e-06,-3.2469432e-06,-5.835084e-06,1.6064648e-06,5.92988e-06,-4.768763e-06,-7.44477e-06,5
-3.8555495e-06,7.815358e-07,1.1724384e-06,-3.1456948e-06,-2.1854953e-06,1.2293534e-06,-2.7436245e-06,-3.705042e-05,2.6136252e-06,6.265578e-06,-4.7688036e-06,-5.430365e-06,5
1.515281e-06,4.8098304e-06,-2.0166972e-06,2.1089193e-07,1.3819164e-06,4.2507995e-06,-3.415256e-06,-7.464403e-05,2.9493876e-06,5.426332e-06,-3.4260486e-06,-3.7516588e-06,5
3.529125e-06,3.4669508e-06,-9.569912e-06,2.7282324e-06,2.5962822e-06,2.908164e-06,-4.75828e-06,-8.135337e-05,-1.0789306e-06,2.4050457e-06,-2.7546923e-06,-1.7372541e-06,5
4.032326e-06,4.4558084e-07,-1.3933993e-05,4.7420244e-06,-3.744544e-08,5.488493e-08,-5.5977553e-06,-5.583567e-05,-3.7644547e-06,2.230058e-07,-3.5939768e-06,-3.942457e-07,5
5.8783203e-06,-5.6159973e-07,-1.1751954e-05,3.2309824e-06,1.9930718e-07,-1.1199004e-06,-4.2551915e-06,-3.2667856e-05,-4.9393384e-06,1.2301012e-06,-3.4261668e-06,-8.9757907e-07,5
4.3673285e-06,-8.9738177e-07,-5.8772293e-06,-2.94251e-07,2.7995839e-06,-2.804957e-07,-2.4090773e-06,-2.8634855e-05,-4.6035793e-06,2.7407443e-06,-2.9226587e-06,-5.8117166e-08,5
-5.0064864e-07,-3.2473552e-06,1.0045891e-06,-9.660487e-07,3.9753527e-06,1.9017019e-06,-2.2414563e-06,-3.6015605e-05,-1.7500804e-06,3.7478399e-06,-4.2654924e-06,2.7779595e-07,5
-4.025833e-06,-4.254533e-06,6.040066e-06,2.0849629e-07,4.198191e-06,3.0768065e-06,-3.7523287e-06,-4.0039373e-05,4.3201953e-07,4.0835384e-06,-4.7690773e-06,-1.0647827e-06,5
-7.551018e-06,-4.7581634e-06,7.5507096e-06,1.215192e-06,5.0111607e-06,4.923306e-06,-2.2419104e-06,-3.298509e-05,9.638082e-08,3.244292e-06,-4.2655684e-06,-1.0645671e-06,5
-9.2298615e-06,-4.590396e-06,6.5436143e-06,8.790934e-07,2.9778864e-06,5.5948603e-06,4.3039845e-06,-1.7202648e-05,-1.4142046e-06,1.3979504e-06,-4.433455e-06,-3.929543e-07,5
-8.390969e-06,-4.5904776e-06,2.6830814e-06,-1.6390464e-06,-1.3788574e-06,2.9094329e-06,9.674934e-06,-3.7700963e-06,-4.099734e-06,5.587042e-07,-4.7691906e-06,-3.9273826e-07,5
-6.041432e-06,-3.5834626e-06,-3.3820479e-07,-4.4928856e-06,-4.043499e-06,-1.11695925e-07,1.0346105e-05,1.1508795e-05,-3.2604307e-06,3.908549e-07,-3.7621314e-06,-1.735316e-06,5
-3.1883508e-06,-3.2478447e-06,6.688906e-07,-7.011025e-06,-4.3776895e-06,-1.1186327e-06,8.66739e-06,4.0215626e-05,2.6143493e-06,-1.7911851e-06,-3.4264692e-06,-2.2386475e-06,5
8.3967717e-07,-1.4015834e-06,1.6759861e-06,-8.354221e-06,-3.086581e-06,-7.8277645e-07,8.499318e-06,6.774751e-05,7.4820327e-06,-4.1410744e-06,-2.7551096e-06,-7.277877e-07,5
2.8535114e-06,2.7682952e-07,2.5152322e-06,-6.3404327e-06,-2.2131605e-06,2.2447668e-07,1.0681133e-05,7.345899e-05,7.3142387e-06,-6.658813e-06,-2.0837479e-06,7.830733e-07,5
-2.1823212e-06,2.7675094e-07,4.361574e-06,-3.4873972e-06,-2.9994774e-06,2.7423748e-06,1.3702199e-05,5.9364265e-05,5.1322527e-06,-9.3444005e-06,-1.7480857e-06,9.511395e-07,5
-1.1414387e-05,-1.2339691e-06,4.865122e-06,-1.4736087e-06,-3.7652396e-06,4.2531756e-06,1.4709076e-05,4.8290814e-05,3.6216632e-06,-1.1358591e-05,-2.4195192e-06,6.156589e-07,5
-1.510743e-05,-2.5768406e-06,4.361574e-06,-9.704645e-07,-3.422321e-06,5.428277e-06,1.6387346e-05,5.4002296e-05,2.1110727e-06,-1.2029988e-05,-2.9231014e-06,1.1194236e-06,5
-1.0575859e-05,-4.0875607e-06,3.5223277e-06,-1.3065657e-06,-6.2572354e-07,5.5962837e-06,1.8065617e-05,7.48202e-05,1.9432757e-06,-1.2197837e-05,-9.089464e-07,7.8394345e-07,5
-2.6873038e-06,-3.584089e-06,3.3544784e-06,3.715229e-07,2.6305913e-06,4.2536494e-06,2.1254533e-05,0.00010084143,3.286121e-06,-1.2029988e-05,1.776608e-06,-2.2371255e-06,5
4.3620034e-06,4.4421716e-07,2.1795338e-06,3.3924061e-06,3.9261686e-06,3.2467112e-06,2.3436358e-05,0.0001174631,3.1183222e-06,-1.3708482e-05,3.9586134e-06,-4.7546455e-06,5
8.222174e-06,1.6190849e-06,1.6534293e-07,5.4061934e-06,4.5781644e-06,3.07902e-06,2.09184e-05,0.0001208247,3.2862217e-06,-1.5554822e-05,3.2871826e-06,-5.0901253e-06,5
9.396757e-06,1.08367075e-07,-1.7035555e-07,5.909337e-06,5.0140325e-06,3.2470266e-06,1.4539911e-05,0.00011059049,2.7827232e-06,-1.7065466e-05,1.9443548e-06,-3.075716e-06,5
7.88575e-06,-1.0666502e-06,3.3319216e-07,4.566138e-06,5.749773e-06,2.0722382e-06,5.979386e-06,9.0621026e-05,3.2863195e-06,-2.0758149e-05,6.015273e-07,-2.7397978e-06,5
9.899578e-06,1.6188621e-06,5.0104137e-07,2.7193914e-06,2.876139e-06,1.4009998e-06,2.722945e-07,6.293049e-05,2.6149705e-06,-2.2268792e-05,6.014941e-07,-4.58592e-06,5
1.7452428e-05,2.7937351e-06,3.0187798e-06,1.2083434e-06,3.4745355e-07,-6.1303274e-07,-1.7421092e-06,1.409096e-05,-2.3841895e-07,-1.9415354e-05,9.3715926e-07,-4.4178514e-06,5
2.4837429e-05,2.1222654e-06,5.2008204e-06,-9.741029e-07,1.7229439e-06,-1.4521233e-06,-1.5744743e-06,-4.4315984e-05,-1.0776196e-06,-1.2533536e-05,4.3357966e-07,-3.7462346e-06,5
2.1983626e-05,1.7864934e-06,5.2008204e-06,-1.3102067e-06,3.6782922e-06,2.2652704e-07,-1.4068385e-06,-5.7571484e-05,-7.418749e-07,-1.2876374e-06,-1.7484927e-06,-3.4103166e-06,5
1.1240908e-05,1.954272e-06,2.6830814e-06,1.3749764e-06,5.0638964e-06,2.5765744e-06,-3.085541e-06,-1.4597487e-05,-1.2453789e-06,1.0797508e-05,-3.2591677e-06,-3.7457944e-06,5
6.372912e-06,6.114079e-07,1.0045891e-06,5.0672534e-06,5.60805e-06,3.9195247e-06,-7.1141358e-06,3.6936817e-05,-7.417857e-07,2.1204161e-05,-1.5807072e-06,-5.7597654e-06,5
8.051036e-06,1.07788495e-07,1.0045891e-06,5.234696e-06,5.155194e-06,2.4090398e-06,-1.4164015e-05,4.3991073e-05,9.750382e-08,2.5232543e-05,-7.0094636e-08,-7.773736e-06,5
9.225611e-06,7.7911665e-07,-3.3820479e-07,1.373757e-06,3.0414258e-06,-4.4424016e-07,-2.4906578e-05,-1.4415877e-05,-4.0600136e-07,2.2882654e-05,6.012703e-07,-7.773515e-06,5
8.889542e-06,6.111983e-07,-5.06054e-07,-2.151484e-06,1.6151583e-06,-2.1225762e-06,-3.548129e-05,-0.00013492705,-1.0773563e-06,1.5497286e-05,9.369375e-07,-4.9198566e-06,5
9.728417e-06,4.4328053e-07,8.725654e-06,-9.769484e-07,1.615306e-06,-1.7867211e-06,-3.7999238e-05,-0.00026332712,1.1047252e-06,9.790412e-06,2.279701e-06,-2.4018968e-06,5
8.049553e-06,7.789103e-07,2.3999934e-05,2.37963e-06,3.6829188e-06,-1.7865642e-06,-3.061408e-05,-0.00031099172,3.7903537e-06,1.0797508e-05,3.2867667e-06,-3.874842e-07,5
-1.1825281e-06,-5.639514e-07,3.423874e-05,5.06481e-06,5.672718e-06,-4.4361238e-07,-2.4236015e-05,-0.0002681856,3.7903935e-06,1.8015025e-05,2.6153389e-06,2.1304757e-06,5
-1.2932346e-05,-1.9068135e-06,3.2560245e-05,6.239346e-06,5.9895647e-06,1.5707344e-06,-2.5243318e-05,-0.00020456615,3.6225838e-06,2.3050503e-05,1.7760643e-06,2.9699445e-06,5
-1.7968201e-05,-1.9068801e-06,2.1817894e-05,9.092375e-06,7.169713e-06,2.242287e-06,-3.044685e-05,-0.00015403896,4.294019e-06,2.2882654e-05,7.6893906e-07,2.9701666e-06,5
-1.5282987e-05,-2.242644e-06,9.229202e-06,1.3791745e-05,7.5276553e-06,1.5710477e-06,-2.8936412e-05,-0.00010418315,3.9583583e-06,1.8686422e-05,-4.060349e-07,2.131142e-06,5
-9.240788e-06,-3.4176537e-06,-3.3594913e-06,1.6476924e-05,7.698145e-06,2.2841036e-07,-1.7019322e-05,-4.710984e-05,1.2728074e-06,1.0629658e-05,-1.0774606e-06,-5.542222e-07,5
-2.527195e-06,-2.9141715e-06,-1.242335e-05,1.7147911e-05,9.322889e-06,1.4035119e-06,-3.591588e-06,-4.6394093e-06,-5.7349746e-07,6.097729e-06,-1.077489e-06,-2.0646423e-06,5
4.1863964e-06,-5.64346e-07,-1.6116033e-05,1.74832e-05,1.0532367e-05,3.5857083e-06,4.2971255e-06,2.7505291e-06,-6.991381e-08,1.0126111e-05,-7.042007e-08,-3.7429118e-06,5
5.8645105e-06,1.7854782e-06,-1.0744858e-05,1.54686e-05,8.237007e-06,4.9286587e-06,8.9967e-06,-1.7554657e-05,2.6157088e-06,1.700793e-05,1.2723441e-06,-5.421181e-06,5
1.1643535e-06,1.7854148e-06,3.6901768e-06,1.1775507e-05,4.61642e-06,4.593117e-06,1.2353483e-05,-4.2223928e-05,3.2871396e-06,1.8518573e-05,1.9437146e-06,-6.2602035e-06,5
-4.0393534e-06,-2.2883795e-07,2.5846277e-05,5.396825e-06,2.7768028e-06,2.9147814e-06,1.3192528e-05,-5.4640204e-05,2.9514745e-06,1.6504382e-05,2.6150835e-06,-7.770624e-06,5
-7.732417e-06,-2.243091e-06,3.3903038e-05,-5.6816343e-06,1.0428846e-06,3.2506355e-06,1.16816855e-05,-6.823143e-05,6.308492e-06,1.4154492e-05,1.6079625e-06,-8.106098e-06,5
-1.0586236e-05,-4.593042e-06,4.1937246e-06,-2.246697e-05,-1.2402533e-06,2.9150935e-06,5.6389117e-06,-8.987941e-05,7.3156198e-06,1.2811699e-05,9.3653796e-07,-8.105873e-06,5
-1.226511e-05,-6.271595e-06,-4.9014485e-05,-3.5559624e-05,-4.1417666e-06,1.0689077e-06,-4.0965433e-06,-8.987484e-05,3.2872692e-06,1.0126111e-05,2.9507028e-06,-9.448443e-06,5
-1.1258397e-05,-3.7539176e-06,-8.224863e-05,-3.5895733e-05,-5.167602e-06,-2.1200724e-06,-1.2824901e-05,-3.347294e-05,2.448054e-06,5.7620305e-06,5.6362646e-06,-1.1126711e-05,5
-5.0483595e-06,2.1207463e-06,-7.486327e-05,-2.6664435e-05,-3.7242694e-06,-5.476901e-06,-1.6685633e-05,4.558861e-05,2.280234e-06,1.7336489e-06,4.964842e-06,-1.17978825e-05,5
5.861457e-06,7.827561e-06,-4.582535e-05,-1.7097438e-05,-1.814149e-06,-5.4767456e-06,-1.3832391e-05,8.9066125e-05,-1.4124205e-06,-1.126928e-07,2.1113797e-06,-1.06227135e-05,5
1.4924931e-05,8.1632e-06,-2.2158607e-05,-9.712485e-06,-2.0024981e-06,-1.9517556e-06,-9.468508e-06,9.125272e-05,-3.7622801e-06,1.3979504e-06,-7.068451e-08,-9.1118445e-06,5
1.6938735e-05,4.6383075e-06,-9.9056115e-06,-3.6703254e-06,-4.02701e-06,1.237536e-06,-6.111717e-06,7.396881e-05,-4.4336502e-06,1.5657996e-06,-7.421083e-07,-7.936675e-06,5
1.3581363e-05,1.6169628e-06,-2.520245e-06,-4.8160217e-07,-5.169004e-06,9.0199364e-07,-3.594176e-06,5.39993e-05,-3.9300753e-06,-2.805419e-07,2.649642e-07,-7.432901e-06,5
8.881198e-06,-1.4043804e-06,3.858026e-06,1.0286279e-06,-4.5574766e-06,-1.1120418e-06,-3.090819e-06,5.1486117e-05,-3.762199e-06,-2.7982803e-06,4.32789e-07,-7.7683735e-06,5
2.1668397e-06,-2.9150801e-06,9.397051e-06,6.0636917e-06,-1.9967083e-06,-3.1260781e-06,-4.0981104e-06,8.036074e-05,-5.1049683e-06,-8.169456e-06,-7.421809e-07,-7.432449e-06,5
-3.3725753e-06,-2.2954842e-07,1.1075544e-05,1.37843435e-05,5.628478e-07,-4.8044158e-06,-4.098303e-06,0.00012920942,-6.7834358e-06,-1.6729768e-05,-7.422045e-07,-7.6000715e-06,5
-5.2193063e-06,3.127381e-06,1.1914789e-05,1.9490804e-05,2.6265602e-06,-5.1399584e-06,-1.4129071e-06,0.0001538878,-7.4548075e-06,-2.3443736e-05,9.362652e-07,-8.439091e-06,5
-5.555395e-06,4.6379687e-06,1.409683e-05,2.2175978e-05,2.5263282e-06,-7.321842e-06,-1.4130983e-06,0.00010823736,-8.126183e-06,-2.6129324e-05,1.9433382e-06,-7.0960705e-06,5
-9.584169e-06,7.4913523e-06,1.2082638e-05,2.083277e-05,1.9411632e-06,-8.160933e-06,-6.113066e-06,2.1611834e-06,-8.797557e-06,-2.478653e-05,6.005215e-07,-3.4031605e-06,5
-1.3277244e-05,8.498392e-06,5.704368e-06,1.3782687e-05,9.3354834e-07,-8.160778e-06,-9.805941e-06,-8.595512e-05,-7.6225892e-06,-1.8911807e-05,6.004991e-07,-3.0672352e-06,5
-1.512398e-05,2.1200688e-06,-9.402063e-06,4.3827154e-06,3.139863e-07,-6.4821315e-06,-1.0141828e-05,-0.00010827453,-6.1119263e-06,-1.404418e-05,-7.091898e-08,-4.074103e-06,5
-1.797781e-05,-1.2315019e-05,-3.3572356e-05,-7.8706935e-06,-4.4218737e-08,-5.4748807e-06,-1.1149112e-05,-7.302165e-05,-7.2868484e-06,-1.33727835e-05,2.6475723e-07,-3.0667802e-06,5
-2.2006587e-05,-2.3728819e-05,-4.834309e-05,-1.9452707e-05,-5.663697e-07,-9.335259e-06,-1.2995642e-05,-1.3598477e-05,-6.447584e-06,-1.6226219e-05,9.361317e-07,-1.7237579e-06,5
-2.1335583e-05,-2.1378983e-05,-4.1964817e-05,-2.5495696e-05,-5.975666e-08,-1.1349293e-05,-1.2995829e-05,1.1247748e-05,-3.4262778e-06,-1.6226219e-05,9.686553e-08,-1.2199828e-06,5
-1.4118464e-05,-7.447547e-06,-2.7865479e-05,-2.3817618e-05,2.3136631e-06,-7.488606e-06,-8.464085e-06,-2.6345944e-05,-1.9156162e-06,-4.6446225e-06,-2.2530464e-06,-2.1265753e-07,5
-4.3836035e-06,6.48389e-06,-2.1319358e-05,-1.6768367e-05,4.331637e-06,-2.6208231e-06,-1.0789033e-06,-7.367489e-05,-1.7477496e-06,1.0461809e-05,-4.435107e-06,-4.4580005e-08,5
2.8335148e-06,1.0176523e-05,-2.4844194e-05,-1.1901156e-05,2.4294973e-06,-2.9563685e-06,4.627787e-06,-6.964198e-05,-2.9226776e-06,1.885427e-05,-6.785015e-06,-5.478993e-07,5
5.8544033e-06,7.1551863e-06,-2.7194084e-05,-1.0055231e-05,2.8232972e-07,-6.1453497e-06,6.97749e-06,-2.129687e-05,-2.0834154e-06,2.0868463e-05,-6.4493374e-06,-5.476703e-07,5
6.8610993e-06,7.76867e-07,-2.1151509e-05,-8.377155e-06,6.7415516e-07,-5.6416466e-06,1.0334292e-05,3.409791e-05,3.791324e-06,2.3050503e-05,-5.106563e-06,-2.3937832e-06,5
6.189302e-06,-7.112096e-06,-1.0409159e-05,-6.19553e-06,1.584132e-06,-3.4594518e-06,1.1676905e-05,7.606475e-05,1.2519499e-05,3.060372e-05,-3.7637883e-06,-4.5755937e-06,5
5.853203e-06,-1.1308375e-05,-3.3820479e-07,-5.6923996e-06,1.5903508e-06,-2.6200505e-06,8.319738e-06,9.201495e-05,2.1079824e-05,3.42964e-05,-4.938752e-06,-4.071817e-06,5
5.1814045e-06,-9.62993e-06,9.229202e-06,-7.035612e-06,3.6137547e-07,-2.9555963e-06,5.801818e-06,8.6144755e-05,2.3429728e-05,2.4896844e-05,-6.4494143e-06,-2.2252455e-06,5
3.5025093e-06,-5.6015956e-06,2.2153592e-05,-8.882371e-06,-3.4328082e-06,-3.962536e-06,4.9623914e-06,7.674972e-05,1.4198032e-05,4.754935e-06,-6.281584e-06,-7.1437245e-07,5
2.6628602e-06,-2.076808e-06,3.7260023e-05,-9.889885e-06,-6.838724e-06,-4.298081e-06,3.7872649e-06,7.373296e-05,4.798486e-06,-1.7065466e-05,-5.778055e-06,-3.7844325e-07,5
5.8515925e-06,1.1122822e-06,5.135936e-05,-9.722453e-06,-5.3461863e-06,-3.2908317e-06,6.6405237e-06,7.491242e-05,5.6377435e-06,-3.771092e-05,-6.785167e-06,6.288832e-07,5
1.18937605e-05,3.294277e-06,5.8744725e-05,-7.87653e-06,-2.7275255e-06,-2.4514306e-06,1.4025712e-05,7.9448866e-05,1.2519573e-05,-5.2313804e-05,-7.4565814e-06,1.4683598e-06,5
1.6593134e-05,6.1476703e-06,5.4716344e-05,-3.680718e-06,-2.4964393e-06,4.021592e-07,1.973241e-05,8.281037e-05,1.738721e-05,-5.8356378e-05,-6.449504e-06,1.3007407e-06,5
1.7264125e-05,7.15472e-06,4.1959804e-05,-1.3312481e-06,-3.3565188e-06,5.43779e-06,2.1075026e-05,8.01293e-05,1.520518e-05,-5.8692076e-05,-5.106727e-06,6.2957565e-07,5
1.8270814e-05,4.4690896e-06,2.8867562e-05,1.1126782e-08,-2.3591206e-06,7.452135e-06,1.9396359e-05,7.2748444e-05,6.644877e-06,-5.8692076e-05,-2.0854563e-06,2.9410793e-07,5
1.7599008e-05,2.4548567e-06,2.0810798e-05,1.3535024e-06,1.918546e-07,6.2773456e-06,1.721414e-05,6.469619e-05,-2.7546728e-06,-5.9699174e-05,2.644162e-07,-2.0920761e-07,5
1.37380675e-05,2.790512e-06,1.4768227e-05,4.5422175e-06,-7.083088e-07,3.9276083e-06,1.4696231e-05,5.6308243e-05,-8.461541e-06,-5.9363476e-05,1.7750431e-06,-4.1126942e-08,5
1.0212824e-05,2.4547724e-06,4.361574e-06,6.723838e-06,-5.0291533e-06,2.7528188e-06,1.1339072e-05,4.3220512e-05,-1.0643574e-05,-5.382445e-05,2.4464234e-06,3.31609e-06,5
8.198223e-06,1.111936e-06,-2.0166972e-06,7.226965e-06,-7.839533e-06,2.9208213e-06,6.8069667e-06,2.727934e-05,-1.1818514e-05,-4.257855e-05,3.621354e-06,6.169758e-06,5
6.015772e-06,9.440461e-07,1.8438353e-06,7.730093e-06,-6.951942e-06,2.4174267e-06,1.7713184e-06,5.295595e-06,-1.1147112e-05,-2.7639968e-05,5.8033775e-06,5.666442e-06,5
6.4418555e-07,1.0475886e-07,8.389956e-06,6.0511798e-06,-3.3601632e-06,2.249729e-06,-2.7607814e-06,-3.213028e-05,-8.7972185e-06,-1.3708482e-05,6.6426096e-06,1.9739919e-06,5
-8.252237e-06,-2.077321e-06,1.0404146e-05,5.8829096e-06,9.241713e-07,3.4248283e-06,-3.0966505e-06,-7.694153e-05,-4.4331355e-06,-2.9661298e-06,4.628404e-06,-3.756645e-07,5
-1.3959525e-05,-3.588002e-06,7.047162e-06,6.889584e-06,3.2728829e-06,6.1105693e-06,-4.103919e-06,-8.549734e-05,6.023442e-07,4.754935e-06,1.4392549e-06,2.959654e-07,5
-1.3959939e-05,-3.9237398e-06,5.032971e-06,5.042821e-06,2.98742e-06,6.6142707e-06,-8.132471e-06,-4.571257e-05,4.462879e-06,9.622563e-06,-7.428011e-07,2.3103885e-06,5
-1.026767e-05,-3.4202296e-06,6.3757648e-06,3.3639067e-06,2.9667972e-06,3.4252876e-06,-9.811131e-06,9.540149e-07,5.3021267e-06,1.3818793e-05,-7.428148e-07,3.9891147e-06,5
-5.5683054e-06,-2.5810211e-06,7.047162e-06,1.0135958e-06,3.6198524e-06,2.0826456e-06,-5.4472184e-06,2.3450308e-05,4.6307296e-06,1.684008e-05,-1.0785262e-06,4.996444e-06,5
-1.5403406e-06,-7.3471614e-07,4.361574e-06,-3.296202e-07,6.3063662e-06,1.5792514e-06,-9.154568e-07,3.0504469e-05,2.616539e-06,1.918997e-05,-2.5891823e-06,4.1574312e-06,5
-4.5620422e-06,4.4019248e-07,2.0116845e-06,5.092025e-07,8.0096615e-06,1.2437062e-06,-1.4191714e-06,3.688723e-05,-5.725978e-07,1.9525669e-05,-2.4213462e-06,8.00681e-07,5
-9.2622395e-06,-3.2525274e-06,-2.506315e-09,3.40931e-07,5.664707e-06,1.7474059e-06,-2.0907335e-06,4.5955578e-05,-7.404485e-07,2.137201e-05,-2.0856585e-06,-3.740299e-07,5
-8.255563e-06,-6.7773967e-06,-4.030888e-06,5.0835723e-07,2.9212827e-06,1.2440115e-06,7.6253934e-07,5.603102e-05,1.6094383e-06,2.3386201e-05,-3.4284647e-06,9.689984e-07,5
-5.4025445e-06,-7.11313e-06,-6.045079e-06,2.8578243e-06,3.4600284e-06,1.5798621e-06,3.6158087e-06,6.0903138e-05,1.6094351e-06,2.3050503e-05,-3.932025e-06,2.815574e-06,5
-2.7173764e-06,-4.5954257e-06,-6.3807774e-06,5.37514e-06,5.699786e-06,3.9299034e-06,4.454894e-06,5.4865046e-05,-9.636469e-06,1.6672231e-05,-2.253545e-06,2.8158088e-06,5
1.814132e-06,-2.5812683e-06,-7.052174e-06,3.3605256e-06,6.9441207e-06,6.783494e-06,2.944086e-06,4.5302124e-05,-3.263182e-05,7.1048244e-06,9.633455e-08,3.6552906e-06,5
4.4992985e-06,-2.0777543e-06,-9.066365e-06,-6.6827914e-07,6.7819774e-06,6.447948e-06,2.2725267e-06,3.288576e-05,-4.622761e-05,-6.162405e-07,4.3202158e-07,3.3198278e-06,5
2.8203835e-06,-1.2385399e-06,-9.737762e-06,-3.3300503e-07,6.8971704e-06,4.2660604e-06,3.95086e-06,6.3700586e-06,-3.8506554e-05,-5.3160193e-06,-1.0786331e-06,3.3200631e-06,5
3.0222157e-07,-9.0287296e-07,-1.0744858e-05,3.5271028e-06,5.9560457e-06,1.5806237e-06,1.9365061e-06,-3.625917e-05,-2.0378842e-05,-5.483869e-06,-1.7500395e-06,4.1595436e-06,5
-2.0174907e-07,-2.4135484e-06,-1.0912707e-05,4.3659256e-06,4.2277743e-06,-1.1048112e-06,-4.1354392e-07,-8.1573984e-05,-4.0974733e-06,-2.805419e-07,-1.4143516e-06,5.6704225e-06,5
-2.0217347e-07,-2.0778812e-06,-1.0744858e-05,2.3513098e-06,3.0353274e-06,-1.2725102e-06,-7.8005336e-08,-0.00012235688,8.82691e-06,2.572895e-06,-1.5822103e-06,8.188398e-06,5
9.723464e-07,-2.315696e-07,-1.1584105e-05,3.022281e-06,2.2974011e-06,9.096837e-07,-1.420957e-06,-0.00015256526,2.0576346e-05,1.3979504e-06,-1.5822199e-06,1.0370674e-05,5
1.1397705e-06,-5.672974e-07,-1.1919803e-05,4.700349e-06,-4.9331936e-07,1.9169295e-06,-6.120892e-06,-0.0001409792,2.9975896e-05,-6.162405e-07,-7.4298396e-07,1.0035213e-05,5
-8.7484716e-07,-1.5744226e-06,-1.0409159e-05,5.0356225e-06,-3.7036496e-06,7.421383e-07,-1.01494325e-05,-9.129137e-05,3.3165023e-05,-2.9661298e-06,9.625516e-08,7.0141623e-06,5
-2.0502196e-06,-2.2458482e-06,-9.737762e-06,6.7136893e-06,-5.726914e-06,-1.104052e-06,-1.2499478e-05,-4.6639e-05,3.2157914e-05,-4.6446225e-06,1.2711896e-06,4.66451e-06,5
-2.2184968e-06,-2.5815746e-06,-9.234214e-06,1.44343285e-05,-8.2111e-06,-1.1039004e-06,-1.3171031e-05,-2.6996177e-05,3.1150805e-05,-7.840898e-07,1.6068814e-06,5.000445e-06,5
8.0236043e-07,-1.910206e-06,-6.7164756e-06,1.930153e-05,-7.769536e-06,1.5818381e-06,-1.0821295e-05,-2.581677e-05,2.779381e-05,8.11192e-06,1.2711733e-06,7.014873e-06,5
4.6624637e-06,-5.6743806e-07,-5.037983e-06,1.6447668e-05,-4.3691207e-06,3.2604826e-06,-7.968014e-06,-2.6483705e-05,2.1415524e-05,1.6168684e-05,5.997697e-07,7.5186576e-06,5
5.6691283e-06,-5.6746455e-07,-4.1987373e-06,1.02368185e-05,-1.4713645e-06,2.9249359e-06,-6.2896734e-06,-5.162394e-06,1.3358747e-05,1.8182875e-05,1.4390093e-06,6.67965e-06,5
3.1509583e-06,-1.5745865e-06,-1.6809987e-06,5.704462e-06,-4.171006e-07,2.4215392e-06,-7.1290733e-06,3.059395e-05,2.4485323e-06,1.7511478e-05,2.2782472e-06,5.672791e-06,5
1.8077325e-06,-1.2389129e-06,3.5223277e-06,3.8576936e-06,4.0132313e-06,2.5895392e-06,-6.793527e-06,5.0740317e-05,-6.4474934e-06,1.5832984e-05,1.1032955e-06,6.680126e-06,5
4.15719e-06,2.4537462e-06,7.718559e-06,2.6823225e-06,7.628053e-06,2.7575404e-06,-1.7582016e-06,5.0744766e-05,-7.4546037e-06,1.2476001e-05,-9.10902e-07,7.687458e-06,5
7.513741e-06,4.635761e-06,8.222107e-06,1.3391021e-06,8.129777e-06,3.5969365e-06,4.6199198e-06,4.789578e-05,-5.4404304e-06,8.951166e-06,5.9973587e-07,7.351998e-06,5
9.191799e-06,3.4607924e-06,4.6972723e-06,-1.3469144e-06,6.164205e-06,5.2755795e-06,7.808906e-06,5.209646e-05,-7.790338e-06,6.6012767e-06,3.956715e-06,6.3451416e-06,5
6.8414747e-06,4.635714e-06,1.6759861e-06,-3.0258352e-06,4.80267e-06,5.611428e-06,7.640908e-06,6.082907e-05,-1.2490134e-05,6.433427e-06,4.9638043e-06,3.1562452e-06,5
3.148356e-06,6.4820338e-06,3.3544784e-06,-3.6976592e-06,5.4560023e-06,3.765238e-06,6.465812e-06,6.586898e-05,-1.4504344e-05,7.2726734e-06,5.2994974e-06,9.744432e-07,5
2.3086736e-06,5.4749153e-06,4.6972723e-06,-3.3623892e-06,5.6226354e-06,2.7582946e-06,3.2765286e-06,5.00956e-05,-1.0979529e-05,7.1048244e-06,5.80304e-06,2.4853252e-06,5
1.8046885e-06,3.460703e-06,4.1937246e-06,-3.3628176e-06,3.298808e-06,1.2478013e-06,-8.060352e-08,1.6194499e-05,-4.9369787e-06,9.286865e-06,4.6280916e-06,4.6676055e-06,5
-5.456383e-07,1.782189e-06,2.8509307e-06,-3.5310952e-06,6.193157e-07,-9.484219e-08,-2.0949387e-06,-7.2999565e-06,7.819543e-06,1.1804604e-05,3.9566903e-06,3.660749e-06,5
-2.8959669e-06,7.750746e-07,3.3544784e-06,-3.027977e-06,-6.1548985e-07,2.4100623e-07,-1.2558393e-06,-1.837357e-05,3.4004002e-05,9.958262e-06,2.7817402e-06,3.1574416e-06,5
-6.58909e-06,4.3935674e-07,5.704368e-06,-6.78515e-07,-5.799817e-07,5.768546e-07,-2.095229e-06,-3.1797073e-05,5.6327928e-05,4.4192366e-06,9.3539546e-07,3.6612284e-06,5
-1.0617911e-05,6.0718645e-07,7.215011e-06,-7.548232e-09,-6.8852864e-07,7.345784e-08,-4.780962e-06,-3.414253e-05,5.8006397e-05,-6.162405e-07,-7.43101e-07,9.758805e-07,5
-9.443406e-06,1.6142617e-06,6.2079157e-06,-5.1152466e-07,-2.4667968e-06,-4.2993898e-07,-5.4525012e-06,-8.960712e-06,3.8368013e-05,-1.9590343e-06,-1.4145002e-06,-2.0451653e-06,5
-2.2263303e-06,1.4463945e-06,4.0258756e-06,-3.4410533e-07,-3.6365575e-06,-4.297889e-07,-4.109851e-06,2.159228e-05,1.0001467e-05,3.908549e-07,-1.414503e-06,-3.3877193e-06,5
5.1585935e-06,1.1106789e-06,1.1724384e-06,-3.445352e-07,-3.1843133e-06,1.5845511e-06,-1.7601028e-06,3.2674758e-05,-1.34974525e-05,2.9085936e-06,-1.2466566e-06,-3.7231766e-06,5
7.50804e-06,3.1248528e-06,6.688906e-07,-3.449653e-07,-3.4543937e-06,3.598892e-06,-1.088847e-06,2.6972306e-05,-2.2393488e-05,3.5799906e-06,-1.4145078e-06,-3.3872377e-06,5
4.8220086e-06,6.817519e-06,1.1724384e-06,-8.489426e-07,-4.176409e-06,2.927646e-06,-2.7674782e-06,1.556298e-05,-2.6086196e-05,2.0693474e-06,-1.4145097e-06,-5.2333385e-06,5
-1.2210096e-06,7.4889012e-06,-5.06054e-07,-2.1921671e-06,-3.018395e-06,-5.970384e-07,-3.7747159e-06,4.9929004e-06,-3.5150086e-05,-2.805419e-07,-2.0859075e-06,-6.7437404e-06,5
-2.5642469e-06,6.313941e-06,-3.0237927e-06,-1.6890508e-06,-1.7417176e-06,-1.9396837e-06,-4.278402e-06,-5.41706e-07,-4.4381824e-05,8.944027e-07,-4.4358e-06,-6.5756494e-06,5
4.4849744e-06,5.1389798e-06,-4.5344354e-06,-1.3537837e-06,-2.3508962e-06,-1.4359872e-06,-3.607144e-06,4.6980676e-07,-7.4091164e-05,4.0835384e-06,-6.114293e-06,-5.232614e-06,5
1.0191402e-05,3.6283225e-06,-5.7093803e-06,-6.3896928e-06,-1.3653867e-06,-1.1001378e-06,-1.0895415e-06,2.8241102e-06,-0.00012360672,8.615468e-06,-6.1142937e-06,-4.896674e-06,5
6.1625724e-06,7.748728e-07,-6.045079e-06,-1.2600544e-05,6.403568e-07,-2.6074233e-07,9.2451387e-07,8.1997e-06,-0.00013737039,1.2476001e-05,-5.442896e-06,-8.085568e-06,5
-5.518447e-07,-2.3223643e-07,-3.6951894e-06,-1.5454414e-05,1.5134973e-06,7.4650296e-07,2.7707179e-06,1.1896793e-05,-0.000105311214,1.3986643e-05,-4.603651e-06,-1.1106612e-05,5
-3.7414295e-06,6.069979e-07,-2.3523958e-06,-1.444775e-05,-2.2806266e-07,1.2501991e-06,4.2812276e-06,6.8657246e-06,-5.5460023e-05,1.1636755e-05,-3.428705e-06,-1.1945615e-05,5
-4.245426e-06,6.069858e-07,-3.191642e-06,-1.2601839e-05,-3.3735894e-06,4.1110133e-07,5.2881874e-06,-5.8864107e-06,-8.797968e-06,8.951166e-06,-2.0859104e-06,-1.1106127e-05,5
