emg1,emg2,emg3,emg4,emg5,emg6,emg7,emg8,emg9,emg10,emg11,emg12,label
-3.997724e-06,-3.7644984e-06,-6.6468374e-07,3.017476e-06,3.8150183e-06,1.8510354e-06,2.7302085e-06,-1.5623624e-05,8.1390925e-07,-2.0851357e-06,-3.9200268e-07,-1.9672598e-05,1
-1.98367e-06,-1.2466978e-06,6.700165e-09,3.856688e-06,3.4793222e-06,-1.170226e-06,4.241091e-06,-1.1763063e-05,2.829252e-06,-1.4126642e-06,1.9579038e-06,-2.2692848e-05,1
-1.6481092e-06,7.675569e-07,-3.2901156e-07,2.0103137e-06,4.150722e-06,1.0118378e-06,4.9127307e-06,-5.3847657e-06,2.934719e-06,-1.7472884e-06,3.6364115e-06,-2.4538154e-05,1
-1.648247e-06,1.7747137e-06,-1.611756e-07,-3.3960913e-07,5.997066e-06,4.200998e-06,3.9058714e-06,-6.849608e-07,1.4227358e-07,-2.2497632e-06,1.286537e-06,-2.403357e-05,1
-9.769891e-07,1.1033806e-06,1.1816048e-06,-1.1788899e-06,5.157821e-06,3.697473e-06,2.731166e-06,4.900089e-07,-1.0316076e-06,-1.5772935e-06,-3.2453754e-06,-1.9500605e-05,1
3.6566627e-07,9.3559447e-07,2.0208374e-06,-2.1860176e-06,3.3114816e-06,2.1868536e-06,-4.5773248e-07,9.935816e-07,5.8454555e-07,2.701199e-07,-4.252457e-06,-1.37926945e-05,1
1.7083223e-06,1.2713554e-06,2.3565221e-06,-2.6896005e-06,2.1365377e-06,1.5154824e-06,-5.4929724e-06,1.1614544e-06,3.0988434e-07,9.4258775e-07,-3.9167435e-06,-9.5954265e-06,1
2.3795799e-06,6.000204e-07,2.6922069e-06,-2.0182363e-06,1.6329907e-06,1.5155075e-06,-7.339078e-06,9.936284e-07,-1.5354842e-06,-1.0705329e-06,-4.4202748e-06,-6.5731037e-06,1
2.5472891e-06,7.679345e-07,2.188645e-06,-1.179025e-06,1.4651424e-06,6.7628787e-07,-5.4925003e-06,3.2225338e-07,-2.7727235e-06,-3.5872024e-06,-5.4273555e-06,-6.236368e-06,1
1.0365059e-06,2.4464896e-06,2.188631e-06,-1.1790588e-06,2.4722387e-06,1.1798605e-06,-2.8066784e-06,1.161521e-06,-2.2080917e-06,-3.753983e-06,-3.748848e-06,-5.8996316e-06,1
-1.6492228e-06,2.1108528e-06,3.3635613e-06,-1.0112436e-06,1.8008407e-06,1.0120374e-06,-3.47784e-06,3.007883e-06,-6.965647e-07,-2.74582e-06,-5.596966e-07,-7.5770863e-06,1
-3.4957059e-06,1.2716711e-06,3.8670946e-06,-1.5148245e-06,1.2234841e-07,-4.9857937e-07,-2.8062104e-06,2.6722048e-06,1.255375e-06,-1.7376574e-06,-3.918322e-07,-8.9188425e-06,1
-2.8244503e-06,1.7752814e-06,3.5313817e-06,-3.0255023e-06,1.1294438e-06,-2.0091968e-06,2.1530963e-07,-5.1691177e-07,1.6522029e-06,-5.8098973e-08,-1.7346088e-06,-7.2393113e-06,1
-4.7470218e-07,1.7753447e-06,4.370613e-06,-3.696932e-06,1.6329899e-06,-2.5127172e-06,4.7692986e-08,-4.377426e-06,9.816002e-07,9.500616e-07,-1.5667445e-06,-5.55978e-06,1
3.6440053e-07,9.361632e-07,3.6992014e-06,-3.361268e-06,2.901946e-07,-2.6805392e-06,-3.3090603e-06,-3.7060113e-06,-1.4304967e-06,2.1260707e-06,-1.7345781e-06,-6.901535e-06,1
-1.3142342e-06,9.697964e-08,1.3492973e-06,-2.3542048e-06,-5.4905195e-07,-4.191155e-06,-2.4695844e-06,4.902362e-07,-1.7050202e-06,1.6235867e-06,-3.7487557e-06,-7.907592e-06,1
-3.3285683e-06,-4.0650383e-07,6.778854e-07,-2.0185405e-06,2.9019114e-07,-6.541018e-06,7.1978207e-07,3.5115395e-06,1.6526704e-06,-5.573907e-07,-5.7629304e-06,-5.3888134e-06,1
-3.6644099e-06,-1.0778382e-06,6.778703e-07,-2.0185744e-06,2.975778e-06,-6.8766885e-06,7.2001177e-07,2.0009106e-06,4.2760944e-06,-1.2277255e-06,-5.091517e-06,-3.5414316e-06,1
-5.1751967e-06,-1.2456236e-06,2.1884982e-06,-1.6829102e-06,4.1507196e-06,-4.86247e-06,2.7344329e-06,-3.489645e-07,4.1694666e-06,-7.231165e-07,-4.0844075e-06,-1.5262012e-06,1
-5.678888e-06,-1.2455598e-06,3.3634274e-06,-5.0799906e-07,3.6471686e-06,-2.6804e-06,4.74885e-06,-6.8464897e-07,3.330836e-06,-1.0577547e-06,-3.5808434e-06,3.678166e-06,1
-4.6719388e-06,-1.4133451e-06,1.0135226e-06,-5.0803294e-07,2.1365224e-06,-1.8411264e-06,2.9027378e-06,-6.846361e-07,1.2545258e-06,-2.5673382e-06,-2.0701862e-06,9.050382e-06,1
-2.490043e-06,4.330597e-07,-2.6791765e-06,-2.1865587e-06,1.465122e-06,-1.3375504e-06,2.231569e-06,-6.84624e-07,-1.0340966e-06,-3.069827e-06,-1.7344707e-06,5.8622863e-06,1
2.3774394e-06,3.2865617e-06,-2.007795e-06,-3.0258407e-06,1.1294202e-06,1.7312273e-07,3.5745882e-06,1.497427e-06,-2.3763653e-06,-1.5581263e-06,-7.273615e-07,-1.4782128e-05,1
7.2449207e-06,6.3079124e-06,2.0205707e-06,-1.3473815e-06,9.61567e-07,1.1802482e-06,4.414059e-06,3.6794786e-06,-2.941988e-06,1.464217e-06,-3.9164829e-07,-4.1804815e-05,1
8.084021e-06,6.3079765e-06,3.6990468e-06,-3.403194e-07,-8.847784e-07,1.7318192e-07,3.7428879e-06,4.6865835e-06,-3.7199216e-06,3.6473134e-06,-3.245068e-06,-5.4560314e-05,1
6.57323e-06,5.1330944e-06,1.68484e-06,-1.3474493e-06,-2.5632762e-06,-4.981841e-07,2.9038663e-06,5.19014e-06,-4.558731e-06,5.3268614e-06,-6.434189e-06,-4.85167e-05,1
5.062441e-06,4.797461e-06,-1.5043119e-06,-2.3545772e-06,-2.227583e-06,-1.8409488e-06,3.8635105e-07,6.3650923e-06,-4.285064e-06,7.006408e-06,-6.9377215e-06,-3.1227188e-05,1
3.3838003e-06,4.126127e-06,-2.3435744e-06,-3.02601e-06,-2.1339753e-07,-3.3515612e-06,-4.816751e-06,7.372196e-06,-2.7130632e-06,8.3502555e-06,-4.9235155e-06,-1.1587785e-05,1
-6.4472886e-07,4.797589e-06,-2.0078924e-06,-3.026044e-06,1.8007868e-06,-3.5193793e-06,-4.9843775e-06,3.6795195e-06,-5.3067475e-07,8.687007e-06,-1.0629683e-06,2.5125933e-06,1
-2.9947685e-06,5.1333514e-06,-1.8400601e-06,-3.404888e-07,2.9757268e-06,-4.5264433e-06,8.905651e-07,-1.3559526e-06,1.2536796e-06,9.695154e-06,1.4547849e-06,9.563304e-06,1
-2.4913682e-06,3.7906216e-06,-1.8400768e-06,2.0093662e-06,3.1435695e-06,-4.526412e-06,8.276152e-06,-2.3630428e-06,1.9864788e-06,1.087115e-05,1.7905e-06,1.1914238e-05,1
-3.6664626e-06,2.783592e-06,-3.3507367e-06,1.0022374e-06,3.1435627e-06,-1.5050954e-06,1.2304758e-05,-5.0486265e-06,1.4039539e-07,9.025859e-06,1.4548151e-06,1.3258074e-05,1
-7.0235974e-06,-1.5804255e-06,-7.0434367e-06,-1.5155355e-06,4.3185e-06,1.6840726e-06,1.0458634e-05,-1.0251949e-05,-3.7820791e-06,4.830678e-06,9.5128325e-07,1.4601911e-05,1
-9.373636e-06,-7.958632e-06,-8.386249e-06,-3.1940624e-06,4.8220404e-06,2.0198027e-06,4.584128e-06,-1.1426891e-05,-2.881385e-06,3.9924803e-06,9.512984e-07,1.527435e-05,1
-1.0045185e-05,-1.1986948e-05,-8.386266e-06,-3.0262474e-06,5.157731e-06,2.3555351e-06,1.2273615e-06,-8.237754e-06,-2.7779224e-08,4.664925e-06,2.4619565e-06,2.4003555e-05,1
-9.038239e-06,-1.047624e-05,-9.2255295e-06,-1.6834863e-06,5.661271e-06,2.187717e-06,2.9060732e-06,-4.37722e-06,1.7566643e-06,5.6730673e-06,3.9726156e-06,4.1125222e-05,1
-5.849254e-06,-7.45489e-06,-8.889848e-06,1.0020678e-06,5.493414e-06,6.7710886e-07,2.738441e-06,-1.5237825e-06,6.432133e-07,7.688304e-06,4.6440264e-06,5.8918286e-05,1
-2.4924218e-06,-2.2514985e-06,-6.204278e-06,2.176978e-06,3.4792142e-06,-1.6727489e-06,-2.8003685e-06,6.5825674e-07,-3.638026e-07,8.5285965e-06,3.8047956e-06,6.6472545e-05,1
2.516403e-08,3.2875912e-06,-3.8544067e-06,2.009095e-06,1.6328635e-06,-3.0155093e-06,-8.171327e-06,3.0081449e-06,-7.6135495e-07,8.361791e-06,2.9655637e-06,5.9759623e-05,1
1.0321074e-06,4.1269013e-06,-3.5187263e-06,8.3411703e-07,2.9006029e-07,-2.5119266e-06,-1.1192399e-05,2.001048e-06,-2.0426105e-06,5.677247e-06,1.9584845e-06,4.1968648e-05,1
1.7033515e-06,1.777077e-06,-2.679498e-06,-1.0122599e-06,-5.491942e-07,5.8455454e-09,-1.2870677e-05,6.582509e-07,-2.7140177e-06,1.817757e-06,1.9584995e-06,2.451337e-05,1
2.5424442e-06,2.44854e-06,8.453178e-07,-1.3479919e-06,-1.5563011e-06,1.7372889e-07,-1.589175e-05,4.1830817e-06,-2.6079772e-06,-6.989395e-07,-5.5922544e-07,1.2764971e-05,1
3.2136875e-06,3.7913978e-06,4.5379825e-06,-5.2317977e-09,-8.8491214e-07,-1.1690295e-06,-1.6562934e-05,6.7008164e-06,-2.210695e-06,-3.2156372e-06,-2.0698535e-06,5.7163484e-06,1
4.0527793e-06,2.11297e-06,5.041512e-06,3.3043224e-07,4.5786942e-07,-2.1760907e-06,-1.3205736e-05,5.3580175e-06,-1.2036995e-06,-6.739431e-06,-5.5919554e-07,2.8639574e-06,1
4.0526247e-06,-4.0470192e-07,3.5308503e-06,1.0017962e-06,1.1292567e-06,-3.8545472e-06,-1.1023485e-05,4.3509162e-06,1.5879741e-06,-6.738391e-06,9.514634e-07,3.0328526e-06,1
3.3810727e-06,-1.5795828e-06,2.3558869e-06,2.1767064e-06,7.935476e-07,-5.868703e-06,-1.0519726e-05,3.1759648e-06,2.6566975e-06,-4.5553134e-06,-3.913167e-07,3.5374478e-06,1
4.220163e-06,-2.3672254e-07,2.0201694e-06,3.0159183e-06,-2.135598e-07,-6.0365182e-06,-8.841024e-06,-8.5242436e-07,2.3208104e-06,-4.554276e-06,-3.0768879e-06,3.2027954e-06,1
5.0592544e-06,1.7775327e-06,1.3487536e-06,4.0229806e-06,9.613735e-07,-3.1830443e-06,-4.6445825e-06,-2.8666236e-06,4.4411313e-06,-5.7281836e-06,-3.0768729e-06,2.5324443e-06,1
5.562645e-06,1.4419e-06,1.5165837e-06,4.0229465e-06,1.1292104e-06,-2.8473082e-06,2.2325332e-07,-2.1952358e-06,6.6848443e-06,-6.902093e-06,-1.3983661e-06,1.5263963e-06,1
6.233886e-06,1.7776634e-06,5.094691e-07,4.3586115e-06,-1.2206918e-06,-3.8543676e-06,3.2447476e-06,-1.3559994e-06,6.348868e-06,-7.908154e-06,-2.0697491e-06,2.5345385e-06,1
7.408673e-06,2.449127e-06,-1.0011935e-06,5.0299745e-06,-2.2277995e-06,-4.02218e-06,4.587748e-06,3.224826e-07,4.9444e-06,-7.90712e-06,-2.0697344e-06,1.8641899e-06,1
7.0728174e-06,2.4491924e-06,-1.6726099e-06,4.6942414e-06,-1.0528676e-06,-3.3507467e-06,4.587955e-06,2.6723608e-06,2.3205298e-06,-5.3883473e-06,-3.9122756e-07,-4.846525e-07,1
6.5691115e-06,3.456353e-06,-1.8404788e-06,3.6871115e-06,-3.814838e-07,-3.5185585e-06,3.5810672e-06,3.3437457e-06,6.4166954e-07,-3.205275e-06,7.8373324e-07,-1.9942477e-06,1
7.0725014e-06,4.4635144e-06,-1.1691016e-06,2.8478316e-06,-8.850444e-07,-4.189917e-06,5.599856e-07,1.3295416e-06,7.4789e-07,-5.2184346e-06,1.287295e-06,-1.4896516e-06,1
6.4009455e-06,4.2957313e-06,-1.3369705e-06,2.3442506e-06,-5.493603e-07,-5.532674e-06,-2.4610965e-06,-1.1882103e-06,1.1453502e-06,-7.735142e-06,-3.911832e-07,-1.4886034e-06,1
3.3795004e-06,3.7922478e-06,-1.8405384e-06,6.6572363e-07,-2.1367657e-07,-5.1969378e-06,-2.4608923e-06,4.902674e-07,2.9912349e-06,-5.719922e-06,-2.5732074e-06,-1.487555e-06,1
1.9020494e-07,3.9601628e-06,-2.3441062e-06,-3.4140538e-07,-1.0529371e-06,-3.3505576e-06,-2.7864797e-07,4.3507853e-06,3.7688978e-06,-2.5297575e-06,-3.2445887e-06,-2.4936014e-06,1
-2.6633918e-06,3.1209834e-06,-2.3441264e-06,6.6565565e-07,-2.395746e-06,-6.649298e-07,1.5678988e-06,8.379152e-06,4.334252e-06,-2.0251819e-06,-1.062535e-06,-5.8495375e-06,1
-1.3238053e-05,1.1068582e-06,-2.511996e-06,1.1691696e-06,-3.4028571e-06,6.7790313e-07,2.2530493e-07,1.0561174e-05,5.6764993e-06,-3.0312501e-06,1.6230667e-06,-8.198378e-06,1
-3.4555065e-05,-1.0751169e-06,-3.686961e-06,1.5048346e-06,-2.2279278e-06,-1.6130463e-07,-1.7886827e-06,7.204172e-06,5.614961e-06,-1.519581e-06,1.6230814e-06,-8.1973285e-06,1
-5.805412e-05,-5.60698e-06,-4.3583786e-06,1.5048006e-06,-5.4945053e-07,-1.8397582e-06,-3.8026749e-06,-8.526099e-07,3.4947718e-06,-3.4361122e-07,6.1600207e-07,-7.860581e-06,1
-8.574941e-05,-1.0978089e-05,-4.5262486e-06,1.0012186e-06,-8.8516464e-07,-2.8468123e-06,-6.823761e-06,-1.0587885e-05,-3.0698118e-08,-2.1889286e-06,9.5171475e-07,-8.363079e-06,1
-0.0001104234,-1.5006405e-05,-4.6941186e-06,6.6548563e-07,-1.5565801e-06,-2.8467723e-06,-9.509148e-06,-1.8141121e-05,-2.4420808e-06,-3.3628496e-06,2.2945235e-06,-9.033426e-06,1
-8.172135e-05,-6.613877e-06,-2.3442506e-06,2.1760945e-06,-5.494999e-07,-3.2899408e-07,-5.984116e-06,-1.0755775e-05,-7.016926e-07,2.6807454e-06,4.4819703e-07,-1.0543019e-05,1
2.9562532e-05,1.4199494e-05,3.6983008e-06,3.6867036e-06,1.800371e-06,3.5315784e-06,1.2335972e-06,1.2407399e-05,3.325964e-06,1.2081325e-05,-2.2373774e-06,-1.2891858e-05,1
0.00013480383,2.7123951e-05,8.06236e-06,5.3651625e-06,4.6537916e-06,5.2101113e-06,5.4300285e-06,2.549962e-05,4.103763e-06,1.3760838e-05,-8.9456876e-07,-1.5240697e-05,1
0.00013530723,2.242424e-05,5.712449e-06,5.0294307e-06,5.3251697e-06,3.8673584e-06,3.4160332e-06,1.6267886e-05,9.765663e-07,8.390682e-06,6.160898e-07,-1.5575346e-05,1
6.783167e-05,1.0842708e-05,-3.3014493e-07,2.0081095e-06,1.4646199e-06,1.5175108e-06,-2.1227938e-06,-1.0206095e-06,-5.348907e-07,2.6848268e-06,-1.0623886e-06,-1.1042365e-05,1
2.5029947e-05,6.142998e-06,-3.3514527e-06,-6.775115e-07,-2.7316285e-06,6.783074e-07,-6.1509813e-06,-6.2239606e-06,-4.2844317e-07,1.1752016e-06,-7.266761e-07,-4.327345e-06,1
2.6540427e-05,8.4929525e-06,-1.8408315e-06,-6.1495045e-09,-2.8994962e-06,2.0211414e-06,-5.64724e-06,2.0006269e-06,-1.7092548e-06,3.6939573e-06,4.4828445e-07,-1.137159e-06,1
3.4597026e-05,9.500113e-06,1.0125838e-06,1.1687615e-06,-8.8532414e-07,3.5318276e-06,-1.4508139e-06,1.0393064e-05,-4.227897e-06,6.3805614e-06,-1.3980431e-06,-4.1573935e-06,1
2.5197302e-05,6.143197e-06,2.0196571e-06,3.2948043e-07,7.9314856e-07,4.538966e-06,1.5706663e-06,1.0728735e-05,-4.7928006e-06,6.8851245e-06,-3.0765204e-06,-7.849026e-06,1
8.747911e-06,2.1148796e-06,1.348238e-06,-3.419496e-07,-2.1396704e-07,3.8676108e-06,2.2422548e-06,5.6932295e-06,-4.2272254e-06,5.543345e-06,-1.7337121e-06,-8.3515215e-06,1
-4.008797e-06,-2.3494167e-07,-1.0016736e-06,3.294124e-07,-1.556782e-06,2.3570117e-06,5.639527e-07,6.577235e-07,-3.3889733e-06,3.5301678e-06,4.483424e-07,-6.8398263e-06,1
-1.1897879e-05,-5.70573e-07,-2.6801883e-06,-8.4556467e-07,-1.7246513e-06,2.692754e-06,2.2844593e-07,-1.6921945e-06,-1.436092e-06,2.3562357e-06,1.959e-06,-5.66383e-06,1
-1.5087182e-05,-2.3480823e-07,-3.1837587e-06,-1.8526947e-06,-3.818768e-07,4.7069875e-06,5.643344e-07,-8.5297825e-07,1.366221e-07,1.0144533e-06,3.3018073e-06,-2.6414914e-06,1
-2.0458523e-05,-1.2418375e-06,-3.0159317e-06,-1.3491817e-06,1.2164934e-07,5.881975e-06,5.6452427e-07,9.933326e-07,-7.03707e-07,3.4406725e-07,3.3018216e-06,5.486962e-07,1
-5.0000155e-05,-4.9344535e-06,-2.6802563e-06,-1.3492157e-06,-7.1761684e-07,5.882019e-06,-7.7807965e-07,3.0074912e-06,-1.6042179e-06,-3.2631988e-07,2.9661371e-06,-1.2164837e-07,1
-0.00011613293,-1.0641261e-05,-3.855224e-06,-6.778518e-07,-1.2211874e-06,4.2035726e-06,-2.1206831e-06,3.0074589e-06,-1.206404e-06,-2.6752004e-06,2.2947554e-06,-1.4633898e-06,1
-0.00018058719,-1.366248e-05,-4.694493e-06,-3.4218786e-07,-8.8550917e-07,2.6929742e-06,-1.1134014e-06,-1.0209556e-06,-3.6832944e-07,-5.0240815e-06,2.6304679e-06,-1.4623371e-06,1
-0.00019804371,-1.5005207e-05,-5.0302147e-06,-1.3493179e-06,-3.0675733e-06,8.466771e-07,-2.1203084e-06,-9.077753e-06,1.248945e-06,-6.365868e-06,2.1269352e-06,-1.6291332e-06,1
-0.00016279552,-2.0544165e-05,-5.701635e-06,-2.0207478e-06,-4.4103876e-06,-3.282228e-07,-2.7915219e-06,-2.3177123e-05,4.7185725e-07,-7.5398066e-06,6.163066e-07,-1.7959292e-06,1
-7.0814305e-05,-2.2726137e-05,-5.1981106e-06,-2.020782e-06,-2.0605225e-06,1.1824657e-06,-2.4556382e-06,-2.8548335e-05,-3.8934845e-06,-5.3567614e-06,-3.907761e-07,-3.1376703e-06,1
0.000115162475,7.7282357e-07,8.444385e-07,6.6477094e-07,3.4784794e-06,5.210892e-06,2.7478748e-06,-5.0494777e-06,-2.9475614e-06,2.0296093e-06,1.6234292e-06,-5.4865063e-06,1
0.00029778227,3.6692625e-05,1.0076123e-05,4.021722e-06,7.338989e-06,7.896528e-06,8.287082e-06,2.5834746e-05,3.6607607e-06,9.0802805e-06,2.9662374e-06,-3.8069606e-06,1
0.00031188145,4.810644e-05,1.1418893e-05,4.189537e-06,6.4997193e-06,5.5466826e-06,6.4409255e-06,3.0870186e-05,6.344998e-06,1.0759775e-05,1.6234577e-06,5.581735e-07,1
0.0001762591,3.031449e-05,4.872749e-06,6.646688e-07,2.471313e-06,1.18265e-06,-4.4071032e-07,1.5428017e-05,3.598284e-06,7.068094e-06,9.52076e-07,4.0840614e-06,1
4.3658016e-05,7.4870604e-06,-1.337697e-06,-3.1958982e-06,6.2494786e-07,-1.6009734e-07,-1.1119241e-06,3.3428316e-06,-3.6785136e-07,5.3906024e-06,9.5209026e-07,2.9101702e-06,1
-1.20681025e-05,-4.262318e-06,-4.359007e-06,-4.0351774e-06,4.5707216e-07,1.1827436e-06,4.7629783e-06,-3.49892e-07,-1.376388e-06,6.7343954e-06,2.2948984e-06,-6.824031e-06,1
-1.9117942e-05,-8.626331e-06,-5.869675e-06,-1.8531714e-06,2.1355402e-06,2.525585e-06,8.287993e-06,-2.1962744e-06,1.5838192e-06,6.3996963e-06,2.6306107e-06,-2.2600805e-05,1
-9.047161e-06,-1.0976152e-05,-5.869699e-06,3.2883358e-07,4.4854037e-06,1.5185365e-06,6.9453818e-06,-2.6998637e-06,3.6602987e-06,5.0578997e-06,1.2878309e-06,-3.602769e-05,1
1.0758875e-05,-8.626196e-06,-4.52693e-06,1.6715945e-06,5.1567754e-06,6.793393e-07,7.616957e-06,1.6641745e-06,2.3159755e-06,6.2338413e-06,-1.565591e-06,-4.3076303e-05,1
3.509684e-05,-3.9263487e-06,-2.680613e-06,6.6446444e-07,5.4924485e-06,1.3507834e-06,1.0974121e-05,9.385195e-06,2.4075095e-07,8.584727e-06,-1.3977278e-06,-3.9718267e-05,1
4.365698e-05,-1.0728452e-06,-2.17709e-06,-2.0211567e-06,5.156723e-06,2.0222278e-06,1.3659888e-05,1.2742136e-05,1.4780286e-06,7.0750784e-06,1.2878734e-06,-2.9142708e-05,1
3.1571657e-05,-1.5763255e-06,-1.6735673e-06,-3.6996837e-06,3.4782045e-06,5.1163335e-07,1.5842106e-05,1.1399297e-05,2.6513537e-06,2.3762939e-06,2.2949835e-06,-1.7560054e-05,1
1.4115162e-05,-1.9119557e-06,-3.3079843e-07,-4.706814e-06,7.925907e-07,-1.5971375e-07,1.6010132e-05,7.706569e-06,1.9189702e-06,-1.6510946e-06,6.165056e-07,-8.662991e-06,1
2.3655405e-06,-1.911888e-06,5.0842266e-07,-3.6997517e-06,-8.859285e-07,6.795824e-07,1.33247195e-05,5.1887846e-06,6.385522e-07,-4.7515806e-07,-3.9057733e-07,-2.7872125e-06,1
-1.6630173e-06,-3.5903122e-06,8.4409584e-07,-2.0212929e-06,1.2113799e-07,1.8545749e-06,8.457265e-06,3.6780946e-06,8.0469255e-07,7.0077783e-07,-7.2626125e-07,2.9207172e-06,1
-5.6915746e-06,-4.59734e-06,8.440704e-07,-1.685629e-06,1.1282061e-06,1.3510775e-06,4.09336e-06,4.1815933e-06,7.437528e-07,-2.1516692e-06,-3.9054922e-07,6.9501557e-06,1
-1.0727229e-05,-3.7580253e-06,-3.3089984e-07,-2.357059e-06,1.2108204e-07,2.3582234e-06,-2.7054577e-07,5.188641e-06,-1.0401698e-06,-6.3469106e-06,1.1201088e-06,5.944114e-06,1
-1.20702e-05,-7.366703e-07,-6.66624e-07,-1.853546e-06,-8.860404e-07,2.8618217e-06,-2.1167116e-06,7.0349333e-06,-2.0490638e-06,-9.03151e-06,2.1272187e-06,5.609472e-06,1
-9.216939e-06,1.9489837e-06,1.7259651e-07,-1.8535801e-06,-5.5037117e-07,8.476812e-07,-3.795034e-06,8.377677e-06,-2.6135049e-06,-1.0037618e-05,1.2879858e-06,7.960417e-06,1
-3.342395e-06,3.291847e-06,1.0118167e-06,-8.4651816e-07,-7.182493e-07,8.484927e-09,-6.648299e-06,9.216871e-06,-4.397384e-06,-1.1715124e-05,-2.2264315e-07,9.8078135e-06,1
2.364302e-06,2.788368e-06,2.3545847e-06,-5.1085425e-07,-1.8932246e-06,5.12083e-07,-1.050866e-05,1.0727464e-05,-5.4063676e-06,-1.372833e-05,-1.3975732e-06,9.305323e-06,1
2.3641235e-06,2.7069618e-07,2.3545585e-06,-1.0144373e-06,-1.7254054e-06,1.1835323e-06,-1.1179886e-05,1.2070205e-05,-3.620872e-06,-1.2048852e-05,-3.0760511e-06,8.467134e-06,1
-4.6857244e-06,-6.1075066e-06,-4.989049e-07,-7.3753763e-09,-5.504894e-07,1.8549798e-06,-1.1683263e-05,1.2238001e-05,-1.0406285e-06,-5.8374467e-06,-3.5795854e-06,8.803888e-06,1
-8.714284e-06,-1.2653558e-05,-2.1774235e-06,1.6043955e-07,2.887253e-07,2.5264296e-06,-1.4536532e-05,1.05594545e-05,-8.747563e-07,8.77505e-07,-3.0760234e-06,1.0315589e-05,1
-9.050163e-06,-1.5674776e-05,-1.338204e-06,-1.6859356e-06,1.2084563e-07,2.8621807e-06,-1.6214855e-05,5.3560725e-06,-1.7748026e-06,5.0747176e-06,-7.2612147e-07,9.980945e-06,1
-9.218192e-06,-1.4331914e-05,-1.6739292e-06,-4.0358586e-06,-8.8627934e-07,2.022985e-06,-1.4536196e-05,-7.064827e-06,-1.5444064e-06,9.439778e-06,-5.4710565e-08,1.0485551e-05,1
-9.72192e-06,-1.1310559e-05,-1.002559e-06,-3.5323455e-06,-2.149146e-07,-3.268503e-07,-1.2018291e-05,-2.5024752e-05,-3.715265e-07,1.5819029e-05,-2.0688876e-06,1.0654457e-05,1
-1.0393499e-05,-7.282109e-06,-6.6688756e-07,-5.110927e-07,1.7992438e-06,-2.5088375e-06,-1.05074805e-05,-3.82849e-05,1.7497606e-06,2.1191185e-05,-2.7402698e-06,7.802076e-06,1
-1.1232925e-05,-3.5893572e-06,-1.6336679e-07,1.6026921e-07,2.3027608e-06,-2.5087843e-06,-8.660974e-06,-3.4256576e-05,4.3300893e-06,1.9681518e-05,-2.06886e-06,3.9426004e-06,1
-1.29116e-05,-2.2464947e-06,3.4015378e-07,-5.1116086e-07,2.4705776e-06,-1.5884186e-07,-7.1501663e-06,-2.1164393e-05,4.999331e-06,1.2464978e-05,-8.939012e-07,5.866723e-07,1
-1.2576083e-05,-2.078577e-06,8.436742e-07,-6.790439e-07,3.8133392e-06,1.0161568e-06,-6.310754e-06,-1.1429197e-05,4.602927e-06,7.0947776e-06,2.8105862e-07,-1.0826019e-05,1
-1.0897773e-05,1.0353166e-07,5.079483e-07,-3.4337998e-07,4.3168534e-06,1.1840598e-06,-5.1356456e-06,-8.57582e-06,2.1478215e-06,5.4172606e-06,1.1203174e-06,-3.3988155e-05,1
-1.0730107e-05,4.3929836e-07,-1.0027225e-06,9.9938e-07,2.30263e-06,5.12716e-07,-5.4711822e-06,-1.6800494e-05,-3.6463877e-08,4.411139e-06,9.524822e-07,-6.2857165e-05,1
-1.4087275e-05,-1.5748238e-06,-2.6812427e-06,9.993458e-07,-4.729338e-08,-6.621725e-07,-5.1353204e-06,-3.0899893e-05,1.5813705e-06,1.3908253e-06,9.5249595e-07,-8.249447e-05,1
-1.6940894e-05,-4.092492e-06,-2.0098732e-06,6.636128e-07,-2.1517617e-07,-1.3335168e-06,-4.799461e-06,-3.17392e-05,4.161784e-06,7.204002e-07,2.8111367e-07,-8.8032444e-05,1
-1.3919794e-05,-4.9316704e-06,6.7568664e-07,6.6357876e-07,-2.1521028e-07,-4.9421374e-07,-5.302847e-06,-1.948627e-05,2.6488067e-06,3.9105066e-06,-1.7330636e-06,-8.568149e-05,1
-1.0059446e-05,-3.2531084e-06,2.1863016e-06,6.6354465e-07,4.561513e-07,9.388529e-09,-4.127744e-06,-7.904737e-06,1.2454025e-06,6.4292153e-06,-1.7330499e-06,-8.1652055e-05,1
-8.548986e-06,-9.031504e-07,3.3612182e-06,6.635106e-07,1.1275146e-06,-4.9410295e-07,-1.7776936e-06,-2.3657772e-06,2.1473663e-06,6.4301844e-06,-1.7330362e-06,-7.795831e-05,1
-8.884869e-06,2.718626e-07,4.871833e-06,9.991755e-07,1.1274795e-06,-8.297461e-07,-2.784633e-06,8.232931e-07,3.1520376e-06,4.249112e-06,-2.0687226e-06,-7.577521e-05,1
-7.206563e-06,1.4468767e-06,6.3824477e-06,2.3419354e-06,-4.750086e-08,-4.93991e-07,-5.4700618e-06,3.0052659e-06,2.7557755e-06,1.9001897e-06,-2.4044068e-06,-7.426352e-05,1
-5.024709e-06,2.9575897e-06,6.7181177e-06,3.0132974e-06,-2.1538554e-07,5.131593e-07,-6.476999e-06,4.0122945e-06,6.364957e-07,1.0619094e-06,-2.5722422e-06,-6.889128e-05,1
-4.5213483e-06,3.4612058e-06,4.7038984e-06,3.3489623e-06,2.8812548e-07,2.359559e-06,-4.126954e-06,4.8514726e-06,-1.0445092e-06,2.9092162e-06,-3.4114746e-06,-6.0665607e-05,1
-3.8501366e-06,2.11848e-06,3.3610756e-06,2.3418334e-06,1.1273362e-06,4.038107e-06,5.729799e-07,4.0121577e-06,-1.1050251e-06,3.7494262e-06,-2.740064e-06,-4.6397367e-05,1
-4.3538707e-06,4.4005725e-07,3.6967451e-06,6.6330625e-07,4.5590156e-07,6.0523557e-06,4.265818e-06,1.3264998e-06,-1.2100732e-06,2.5754446e-06,-1.0615585e-06,-1.3162156e-05,1
-6.5361e-06,-5.669675e-07,3.696716e-06,-1.5187678e-06,-8.869274e-07,8.570151e-06,4.9373725e-06,1.9978265e-06,-2.0519212e-06,8.979143e-07,-1.2293939e-06,6.153181e-05,1
-8.382629e-06,-1.7418441e-06,1.8503453e-06,-1.1831039e-06,2.8797837e-07,8.905907e-06,4.9375262e-06,1.8299063e-06,-3.9587308e-06,-1.2831649e-06,-2.2228538e-07,0.0001666065,1
-9.72561e-06,-1.9096237e-06,3.3967285e-07,1.3346021e-06,3.477077e-06,6.220379e-06,3.5948835e-06,-1.6949996e-06,-5.4065304e-06,-4.47134e-06,1.4562202e-06,0.00026244947,1
-1.0732895e-05,-3.5880464e-06,-1.8423967e-06,9.98869e-07,4.484134e-06,4.038395e-06,2.0843938e-06,-4.044962e-06,-5.241373e-06,-5.3096273e-06,1.4562337e-06,0.0003101197,1
-1.375437e-05,-6.4414144e-06,-2.1781245e-06,-5.11808e-07,2.8056047e-06,4.2063048e-06,2.4202436e-06,-4.0450354e-06,-3.9589986e-06,-4.6372725e-06,2.2954941e-06,0.0002832649,1
-1.6440146e-05,-7.112742e-06,-2.3460036e-06,-6.796911e-07,2.1341682e-06,3.7028142e-06,2.9239416e-06,-1.8457767e-07,-1.8819225e-06,-5.3077124e-06,3.6383017e-06,0.00020588745,1
-1.5265392e-05,-3.923536e-06,-1.0032394e-06,4.952178e-07,7.9133645e-07,2.8636282e-06,4.266885e-06,3.5080318e-06,-2.062103e-07,-6.313852e-06,1.959823e-06,0.0001348883,1
-1.3419241e-05,1.0491464e-07,1.34662e-06,1.6701298e-06,-5.5149667e-07,1.8565905e-06,8.295416e-06,6.025693e-06,-1.4415282e-06,-6.145048e-06,-5.579035e-07,9.091285e-05,1
-1.2915883e-05,1.0498427e-07,1.5144392e-06,1.6700957e-06,-3.8368714e-07,1.017405e-06,1.08133045e-05,7.0327133e-06,-4.064187e-06,-4.6334503e-06,-2.5720801e-06,6.237953e-05,1
-1.2412526e-05,-2.916232e-06,-8.354802e-07,1.6700617e-06,-1.2229739e-06,1.0368824e-08,1.1149151e-05,4.682746e-06,-5.4098523e-06,-4.632497e-06,-2.2363686e-06,4.408502e-05,1
-9.391431e-06,-4.9303535e-06,-2.3461537e-06,1.1664796e-06,-2.901505e-06,3.4612685e-07,1.1317147e-05,6.542855e-07,-6.141573e-06,-4.967244e-06,-3.9001426e-07,3.082599e-05,1
-5.027543e-06,-4.4267354e-06,-1.3390886e-06,1.5021446e-06,-3.5729433e-06,1.5211322e-06,1.3667185e-05,-3.3741746e-06,-6.2464524e-06,-4.2948964e-06,1.6241901e-06,2.1427491e-05,1
-2.174297e-06,-1.9089277e-06,6.750717e-07,2.3413565e-06,-4.24438e-06,2.6961388e-06,1.5010123e-05,-2.535008e-06,-2.8924278e-06,-3.958248e-06,1.6242035e-06,1.4378884e-05,1
-3.6851332e-06,2.455223e-06,3.3606289e-06,2.8448694e-06,-4.2444212e-06,2.8640486e-06,1.4003174e-05,6.540464e-07,1.4113755e-06,-3.9572988e-06,4.492738e-07,7.3302754e-06,1
-5.02812e-06,4.469484e-06,4.3676932e-06,3.5162325e-06,-2.9016683e-06,1.5213146e-06,1.2660526e-05,1.6610614e-06,1.1386882e-06,-3.1171046e-06,9.528341e-07,1.6244597e-06,1
-4.021217e-06,2.791062e-06,4.031964e-06,3.5161984e-06,-3.23741e-06,-1.5711596e-07,8.967987e-06,1.8288284e-06,-8.7855096e-07,-9.341174e-07,2.7991885e-06,2.827262e-07,1
-3.6857125e-06,2.119733e-06,3.1926868e-06,2.6769185e-06,-5.251643e-06,-1.8355473e-06,5.7789944e-06,3.1715397e-06,-2.673829e-07,7.453208e-07,2.1278056e-06,2.9693726e-06,1
-3.5180574e-06,3.798296e-06,3.0248066e-06,1.6697893e-06,-6.9301773e-06,-2.6747305e-06,5.9469858e-06,5.1856473e-06,9.706146e-07,1.0819642e-06,-5.4222024e-08,4.3132263e-06,1
-3.2911572e-07,4.469764e-06,3.1926245e-06,8.305093e-07,-8.440864e-06,-2.8425172e-06,5.275732e-06,6.3605066e-06,7.996275e-07,-9.312827e-07,-2.4040978e-06,1.2929997e-06,1
6.777846e-07,3.1270401e-06,2.6890455e-06,-3.4446973e-07,-9.615849e-06,-3.5138528e-06,3.26168e-06,5.521176e-06,-1.1068945e-06,-4.287325e-06,-3.2433295e-06,-1.7272266e-06,1
-2.6793953e-06,-5.6557275e-07,1.5140693e-06,-1.3515997e-06,-8.944497e-06,-4.5208853e-06,1.5833303e-06,3.1712007e-06,-2.7222927e-06,-5.7970256e-06,-3.0754672e-06,-3.7403586e-06,1
-5.8687247e-06,-4.5938855e-06,-3.3230407e-07,-2.3587277e-06,-6.930349e-06,-5.8636165e-06,1.5834701e-06,2.331867e-06,-7.113291e-07,-3.2783466e-06,-2.571907e-06,-5.5856403e-06,1
-4.8618267e-06,-5.6009103e-06,-2.3465266e-06,-3.365859e-06,-6.258995e-06,-7.206347e-06,1.2479071e-06,3.3388756e-06,2.249825e-06,1.4223717e-06,-2.404045e-06,-6.9273747e-06,1
5.6053118e-09,-3.586649e-06,-1.8430109e-06,-5.044385e-06,-4.5805473e-06,-6.3670386e-06,5.766494e-07,4.5137326e-06,3.3200565e-06,2.7661044e-06,-1.7326338e-06,-1.0954696e-05,1
4.7051876e-06,-1.9080867e-06,-3.3239968e-07,-7.226459e-06,-3.8436067e-07,-6.366975e-06,-1.1017039e-06,4.5136435e-06,4.323835e-06,1.0885497e-06,-5.4129668e-08,-1.649266e-05,1
6.215634e-06,-9.009203e-07,-5.0028103e-07,-6.5550967e-06,2.4690316e-06,-6.53476e-06,-1.772963e-06,3.1707598e-06,5.606545e-06,-2.603197e-06,1.9600755e-06,-2.0184285e-05,1
4.3690957e-06,1.1133411e-06,-1.0038609e-06,-5.044487e-06,1.4618905e-06,-6.534696e-06,-2.6218572e-07,1.3243272e-06,5.3340236e-06,-6.9663415e-06,3.4707316e-06,-2.0518924e-05,1
2.354707e-06,2.7919045e-06,-3.3249643e-07,-5.044521e-06,-8.8804285e-07,-6.8703293e-06,4.7734256e-06,1.1563867e-06,3.3164272e-06,-7.301105e-06,3.9742927e-06,-2.3539149e-05,1
2.354509e-06,2.959824e-06,1.7101887e-07,-6.05165e-06,-7.2023954e-07,-8.884454e-06,7.6269985e-06,5.520375e-06,1.2422009e-06,-4.6145838e-06,2.2958127e-06,-2.8741415e-05,1
3.6971035e-06,3.7991397e-06,-3.3256154e-07,-5.0445888e-06,-1.5595335e-06,-9.052237e-06,5.948642e-06,9.548663e-06,2.9832336e-07,-2.9351588e-06,1.6244278e-06,-3.3775832e-05,1
3.0255078e-06,5.1420043e-06,-1.6753881e-06,-3.3661308e-06,-2.3988248e-06,-6.870134e-06,4.9416813e-06,7.3665306e-06,-5.444168e-07,-3.7734735e-06,2.816488e-07,-3.662821e-05,1
1.0111186e-06,3.7992809e-06,-1.675421e-06,-3.366165e-06,-3.2381186e-06,-3.6809324e-06,4.941814e-06,3.338054e-06,-7.72254e-07,-5.6188846e-06,1.2887558e-06,-3.61236e-05,1
-3.3187493e-07,1.0666851e-07,-1.6754541e-06,-4.037595e-06,-2.9024654e-06,-1.8345256e-06,7.627531e-06,1.659467e-06,-8.7684316e-07,-6.9607495e-06,2.9672608e-06,-3.4444052e-05,1
3.3932116e-07,-1.9074519e-06,-2.346884e-06,-5.0447247e-06,-7.2047266e-07,-1.1630615e-06,1.1488194e-05,3.002164e-06,-3.7687954e-07,-7.966916e-06,1.1209328e-06,-3.6289333e-05,1
3.4228995e-09,-1.571683e-06,-1.5076711e-06,-4.8769098e-06,3.4757097e-06,-1.6665442e-06,1.0984778e-05,4.6805603e-06,6.672889e-08,-7.126743e-06,7.852478e-07,-4.1827298e-05,1
-3.3247574e-07,-1.9073102e-06,6.743357e-07,-1.687808e-06,6.16125e-06,-2.5057225e-06,8.80287e-06,7.030353e-06,2.9787876e-07,-5.7830225e-06,1.2888077e-06,-4.4679673e-05,1
6.7441823e-07,-2.9143343e-06,2.6884932e-06,1.1655951e-06,5.1541056e-06,-2.6735047e-06,6.956656e-06,8.037348e-06,-7.128899e-07,-5.614248e-06,2.817266e-07,-4.4342916e-05,1
2.0170107e-06,-2.0750176e-06,2.1849116e-06,1.3334111e-06,1.9649212e-06,-2.0020416e-06,5.613991e-06,5.351663e-06,-4.1297635e-06,-6.284721e-06,-7.253575e-07,-4.299906e-05,1
2.688206e-06,-5.643026e-07,-1.0042575e-06,-3.451159e-07,4.5422948e-07,-1.8341252e-06,2.257134e-06,-1.8746253e-07,-6.4163128e-06,-6.955195e-06,-1.7324386e-06,-4.081596e-05,1
2.6880039e-06,-2.2853362e-07,-3.018482e-06,-1.6879438e-06,7.8988035e-07,6.8368246e-07,-2.610369e-06,-5.3908893e-06,-4.741583e-06,-5.6114786e-06,-3.2430687e-06,-3.8297163e-05,1
3.1913494e-06,-1.0677096e-06,-2.850667e-06,-2.8629229e-06,4.5413094e-07,1.6908443e-06,-5.7993766e-06,-7.0694828e-06,-1.7801378e-06,-2.4214223e-06,-3.075207e-06,-3.5442663e-05,1
4.3660916e-06,-1.5711865e-06,-1.8436057e-06,-3.870052e-06,1.1254792e-06,-2.5053175e-06,-9.827632e-06,-4.7196954e-06,-3.826217e-08,2.279276e-06,-2.235949e-06,-2.9231182e-05,1
4.3658883e-06,1.0737752e-07,-6.686952e-07,-3.19869e-06,9.575801e-07,-4.183741e-06,-1.587008e-05,-6.9141646e-07,2.935837e-07,7.1478225e-06,-1.3966892e-06,-2.2180455e-05,1
4.3656846e-06,2.4573387e-06,-8.3657864e-07,-1.6880798e-06,-3.852642e-07,-3.5122764e-06,-2.0066187e-05,2.4976146e-06,-7.733034e-07,9.162932e-06,-1.3966765e-06,-1.7983162e-05,1
3.3583847e-06,3.1288068e-06,-1.0044624e-06,-1.3524158e-06,-1.0567119e-06,-4.6871514e-06,-2.2583803e-05,2.3296614e-06,-2.052674e-06,8.6603e-06,-2.2359106e-06,-1.663931e-05,1
2.6867833e-06,3.632425e-06,2.598438e-09,-2.3595437e-06,-3.8536584e-07,-4.854933e-06,-2.6276362e-05,9.867629e-07,-1.3852184e-06,8.325518e-06,-1.0609529e-06,-1.5799002e-05,1
2.5187296e-06,4.3038945e-06,1.3453576e-06,-2.3595776e-06,1.2930749e-06,-3.0085216e-06,-2.5269146e-05,1.9937522e-06,7.370788e-07,9.165678e-06,-3.895441e-07,-1.4287299e-05,1
2.3506755e-06,5.1432107e-06,2.6881169e-06,-1.1846686e-06,9.573253e-07,-1.3299599e-06,-1.5198069e-05,4.5113843e-06,2.6468842e-06,7.823798e-06,-5.573804e-07,-1.5293333e-05,1
1.511224e-06,5.47898e-06,2.6880818e-06,-9.757573e-09,-1.5604666e-06,-4.90642e-07,-3.9520505e-06,7.029016e-06,2.8107029e-06,3.1249322e-06,-1.0609147e-06,-2.1166996e-05,1
2.3502641e-06,3.4648613e-06,2.8558961e-06,1.3330035e-06,-2.2319148e-06,-1.548737e-07,1.2513946e-06,7.868153e-06,1.9117626e-06,-3.989905e-07,-5.57355e-07,-2.485862e-05,1
3.357153e-06,-5.990131e-08,1.8487654e-06,3.0114604e-06,-1.2248723e-06,-4.905012e-07,7.479668e-07,6.8609497e-06,1.3038709e-06,-2.2444217e-06,-3.8949332e-07,-2.2171973e-05,1
3.0212475e-06,-5.633769e-07,3.3808695e-07,4.8577695e-06,-2.1782918e-07,-8.261294e-07,2.4453837e-07,5.853743e-06,7.96203e-07,-3.586306e-06,-5.3781687e-08,-1.6464037e-05,1
2.8531915e-06,9.4733764e-07,2.3530111e-09,4.3541877e-06,2.8034046e-06,-1.1617564e-06,9.1605216e-07,3.6715935e-06,9.044072e-07,-1.14743125e-05,9.5332695e-07,-9.413309e-06,1
3.3565323e-06,2.7937513e-06,1.0094129e-06,2.6756607e-06,4.98539e-06,-6.581371e-07,-1.4337177e-06,1.9929894e-06,-7.1054e-07,-2.1712209e-05,7.8549056e-07,-4.880319e-06,1
4.5312695e-06,3.4652187e-06,3.379803e-07,8.292858e-07,4.4817884e-06,-4.902165e-07,-3.1120953e-06,1.6571793e-06,-2.72894e-06,-2.657893e-05,4.4980516e-07,-5.7185052e-06,1
9.06299e-06,2.4581952e-06,-1.1726987e-06,-9.9951425e-09,4.146036e-06,-6.579937e-07,9.164014e-07,6.4997016e-07,-3.7956304e-06,-2.372459e-05,-5.3731263e-08,-1.0752922e-05,1
1.4433957e-05,1.115473e-06,-5.013376e-07,-3.4572707e-07,3.642434e-06,-4.9007264e-07,4.1056524e-06,-6.9293685e-07,-4.0677432e-06,-1.6674017e-05,9.533773e-07,-1.2766052e-05,1
1.4937297e-05,1.1155447e-06,5.057218e-07,8.29184e-07,2.9709834e-06,1.3546679e-08,4.1057665e-06,-1.0287498e-06,-4.0720415e-06,-7.273556e-06,1.9604859e-06,-9.575857e-06,1
8.894515e-06,-5.628756e-07,-1.0049575e-06,1.5005471e-06,2.8030793e-06,1.3619268e-08,4.945129e-06,-1.0288649e-06,-3.9637384e-06,2.126903e-06,1.6247983e-06,-3.5322248e-06,1
5.0184264e-07,-3.5840908e-06,-3.6905815e-06,-1.0130812e-08,1.795927e-06,-8.255539e-07,5.616638e-06,-1.5325284e-06,-2.5573197e-06,1.0016718e-05,-1.0607762e-06,3.3506549e-06,1
-4.5338443e-06,-3.41617e-06,-4.0263167e-06,-1.0172607e-06,2.8522837e-07,-1.8325768e-06,7.4630902e-06,-1.8985163e-07,-3.7966623e-07,1.4549547e-05,-3.0749536e-06,1.0737082e-05,1
-4.3662035e-06,-1.4019072e-06,-2.3478606e-06,-6.815946e-07,4.5302144e-07,-9.932564e-07,1.0820187e-05,3.8384132e-06,6.438425e-08,1.6900334e-05,-2.9070923e-06,1.8627057e-05,1
-1.1772801e-06,-2.2689026e-07,-6.694049e-07,-3.4593052e-07,1.9636082e-06,8.5315924e-07,1.5016527e-05,7.1952804e-06,-1.7182921e-06,1.8244027e-05,-1.7321347e-06,2.7524125e-05,1
4.361535e-06,1.4516737e-06,1.9553184e-09,-1.1852114e-06,3.8098947e-06,2.363876e-06,1.8541472e-05,8.705804e-06,-2.7298636e-06,1.8580622e-05,-1.5642734e-06,3.3567758e-05,1
9.732499e-06,3.4659365e-06,1.6976774e-07,-1.8566413e-06,4.8169327e-06,3.0353472e-06,2.1562868e-05,9.041382e-06,-3.7964055e-06,1.7070872e-05,-1.3964119e-06,3.3233122e-05,1
1.1746478e-05,6.1515975e-06,1.881437e-09,1.575148e-07,4.3133277e-06,3.7068176e-06,2.8276947e-05,9.8805085e-06,-3.0613028e-06,1.3714782e-05,-3.893055e-07,2.417032e-05,1
1.2585512e-05,8.669406e-06,1.176789e-06,2.3395219e-06,2.6347782e-06,4.8818374e-06,3.381608e-05,1.1223181e-05,-2.0587736e-06,1.0862238e-05,7.8565284e-07,1.1582687e-05,1
1.2920998e-05,9.676576e-06,2.687395e-06,3.5144321e-06,2.8025704e-06,6.896103e-06,3.6501773e-05,1.105521e-05,-1.6146239e-06,7.841844e-06,1.2892123e-06,-2.683438e-06,1
1.3088635e-05,9.340948e-06,4.0301516e-06,3.5143983e-06,3.4739082e-06,8.574671e-06,3.3648445e-05,1.17264835e-05,-1.0473292e-06,2.4715596e-06,7.8567757e-07,-1.8795905e-05,1
1.17456275e-05,7.830378e-06,3.0230187e-06,3.3465153e-06,1.6275079e-06,7.90335e-06,2.7605978e-05,1.44119485e-05,1.4657542e-06,-4.2415204e-06,1.7927858e-06,-3.1215688e-05,1
9.227676e-06,5.9841072e-06,1.3444885e-06,3.5143305e-06,9.560532e-07,5.2178366e-06,2.0724263e-05,1.4747522e-05,3.5884464e-06,-9.611807e-06,2.7998922e-06,-3.5746558e-05,1
4.695532e-06,4.4735375e-06,3.373554e-07,3.6821457e-06,2.6344862e-06,6.5607073e-06,1.1660507e-05,1.18939615e-05,4.6593277e-06,-1.3974999e-05,3.6391514e-06,-3.557765e-05,1
-2.690049e-06,2.1237188e-06,-1.6768734e-06,2.6750167e-06,1.6273308e-06,8.910672e-06,1.9253573e-06,6.6905086e-06,4.9902824e-06,-1.7331098e-05,4.1427115e-06,-3.591229e-05,1
-9.0685335e-06,-2.2609699e-07,-2.180459e-06,1.5000389e-06,-2.1906979e-07,7.9036545e-06,-3.4457169e-06,4.799595e-07,4.0917384e-06,-1.766591e-05,2.63208e-06,-3.6246925e-05,1
-1.0243694e-05,-1.9045176e-06,-1.0055523e-06,9.964571e-07,7.8796626e-07,4.043197e-06,-1.7671207e-06,-2.3736047e-06,3.6520155e-06,-1.5482987e-05,2.296394e-06,-3.2721033e-05,1
-5.376281e-06,-1.7365962e-06,1.512148e-06,9.964232e-07,1.795e-06,-1.6636002e-06,1.4221167e-06,-6.952404e-07,2.9757855e-06,-1.0950173e-05,2.2964064e-06,-2.4159663e-05,1
1.3374735e-06,7.8121616e-07,2.6870543e-06,1.4999374e-06,1.7949395e-06,-7.873944e-06,3.2685564e-06,2.3259165e-06,1.2380458e-06,-5.074569e-06,1.2893225e-06,-1.0898512e-05,1
6.3727334e-06,2.4597807e-06,1.0085234e-06,2.0034506e-06,1.4591806e-06,-9.888058e-06,4.2757515e-06,3.332883e-06,1.6376089e-06,1.2963883e-07,-3.8915826e-07,2.6983344e-06,1
7.715312e-06,2.124153e-06,-2.3485e-06,2.1712658e-06,1.2912705e-06,-9.216585e-06,6.96144e-06,-3.599312e-07,1.6326865e-06,4.494599e-06,-2.403336e-06,1.1091857e-05,1
3.6867123e-06,6.1358264e-07,-4.362729e-06,2.0033829e-06,1.12336e-06,-6.698767e-06,1.082207e-05,-8.752524e-06,7.342427e-07,9.698804e-06,-2.067626e-06,1.6464091e-05,1
-5.0416647e-06,4.458062e-07,-2.6842758e-06,3.346143e-06,7.876002e-07,-5.0201966e-06,7.4651834e-06,-1.680942e-05,1.267499e-07,1.8092145e-05,6.179751e-07,2.7375352e-05,1
-1.1420152e-05,7.815788e-07,-5.0227464e-07,5.024602e-06,1.1232361e-06,-5.187967e-06,-4.1163166e-06,-1.9830839e-05,2.13593e-06,2.7156879e-05,1.4572322e-06,4.231499e-05,1
-1.175607e-05,9.495004e-07,-3.3446452e-07,6.3673615e-06,2.1302687e-06,-4.51649e-06,-1.9054803e-05,-1.7481083e-05,3.419576e-06,3.2025382e-05,2.8230127e-07,5.3394102e-05,1
-8.399304e-06,-5.610699e-07,-6.7020216e-07,5.3602325e-06,4.983643e-06,-4.516411e-06,-3.617533e-05,-1.4795629e-05,2.6442735e-06,3.0683463e-05,-3.8908567e-07,5.373086e-05,1
-7.5602748e-06,-3.2465853e-06,-1.6773369e-06,3.010309e-06,5.822827e-06,-5.691277e-06,-6.0177674e-05,-1.4460065e-05,9.606804e-07,3.0348638e-05,1.2894194e-06,4.1646774e-05,1
-1.2260272e-05,-5.7642515e-06,-5.024316e-07,1.3317841e-06,1.9622296e-06,-6.5304444e-06,-8.418002e-05,-1.7649336e-05,-9.4475797e-07,3.4210043e-05,2.9679234e-06,2.3687964e-05,1
-1.7128119e-05,-4.757084e-06,1.3438705e-06,2.1709952e-06,-1.562668e-06,-6.8660624e-06,-9.039035e-05,-2.0670761e-05,-1.8878708e-06,3.8071445e-05,3.4714844e-06,8.079043e-06,1
-1.5114149e-05,-1.7357248e-06,1.6888626e-07,2.0031125e-06,-1.0591829e-06,-5.6910376e-06,-6.621997e-05,-1.6810363e-05,-3.8241654e-07,3.437963e-05,2.6322493e-06,-1.3194544e-06,1
-7.3933033e-06,-2.07135e-06,-3.347013e-07,2.3387777e-06,1.1227928e-06,-3.1732193e-06,-3.0635838e-05,-8.250191e-06,5.6563175e-07,2.2295355e-05,1.6251653e-06,-6.018174e-06,1
-6.7955386e-07,-5.260413e-06,1.1759021e-06,3.01014e-06,1.7941243e-06,-1.4946468e-06,-7.4725504e-06,-1.3685112e-06,1.2610612e-07,9.539682e-06,2.8001223e-06,-8.031306e-06,1
3.0129074e-06,-7.6102287e-06,3.0222038e-06,4.8564493e-06,1.9619085e-06,-1.4945659e-06,2.4860555e-07,1.3169371e-06,2.886762e-07,3.497975e-06,2.128738e-06,-7.358851e-06,1
5.0268786e-06,-6.6030602e-06,4.5328065e-06,6.3670577e-06,1.7939943e-06,-1.1587849e-06,5.8439355e-07,2.6595908e-06,5.6537897e-07,2.1560463e-06,9.53805e-07,-5.5114506e-06,1
4.690958e-06,-2.9103041e-06,5.2041632e-06,6.367024e-06,1.1225328e-06,-1.3265545e-06,5.844828e-07,2.6594498e-06,6.294406e-07,4.7841826e-07,2.296611e-06,-3.3283513e-06,1
3.0122433e-06,1.1181509e-06,6.211218e-06,5.359895e-06,-5.5602493e-07,-8.22924e-07,2.2630654e-06,1.987911e-06,2.6382631e-06,-8.635126e-07,4.310814e-06,-1.6488003e-06,1
3.6834183e-06,7.825259e-07,7.050424e-06,3.5135192e-06,-2.90598e-06,3.5210184e-07,6.4593833e-06,2.6591654e-06,2.915016e-06,4.801433e-07,4.8143725e-06,-2.1512901e-06,1
5.025991e-06,-1.2315929e-06,7.0503834e-06,2.0028426e-06,-3.7452935e-06,2.030676e-06,1.0320004e-05,2.8268712e-06,1.6363227e-06,-1.903929e-07,3.1358916e-06,-3.996573e-06,1
7.7113555e-06,-2.9100117e-06,4.7004537e-06,2.3385078e-06,-3.409662e-06,2.8700063e-06,1.1662882e-05,1.987481e-06,1.4630165e-06,-4.217915e-06,4.503173e-07,-3.659817e-06,1
7.711133e-06,-2.5742406e-06,3.6933172e-06,3.513418e-06,-1.731237e-06,2.8700888e-06,1.0991572e-05,1.9873362e-06,1.2362724e-06,-8.245437e-06,-1.5638619e-06,3.392495e-08,1
5.0253216e-06,-3.9212645e-07,4.196824e-06,4.3526315e-06,-2.2066038e-07,2.1987726e-06,1.1830902e-05,4.0013815e-06,7.9686384e-07,-1.059447e-05,-1.7316992e-06,4.063365e-06,1
2.3395096e-06,1.7899857e-06,3.0218384e-06,3.6811996e-06,1.1497001e-07,8.5606376e-07,1.2670234e-05,5.344029e-06,-5.514755e-07,-1.2439955e-05,-5.5674445e-07,7.421408e-06,1
3.5142293e-06,2.4614571e-06,1.3433047e-06,3.345468e-06,-2.207959e-07,5.2044714e-07,1.166322e-05,2.490444e-06,-3.463758e-06,-1.1599854e-05,2.825153e-07,8.42956e-06,1
6.703141e-06,1.9579813e-06,2.1825094e-06,3.848981e-06,-1.7315081e-06,8.562307e-07,1.2334703e-05,-2.7441299e-08,-4.9102237e-06,-9.58481e-06,6.18225e-07,8.598468e-06,1
5.6958197e-06,2.1259036e-06,2.3503173e-06,3.6810986e-06,-3.5779176e-06,1.1920126e-06,1.4348974e-05,2.6579976e-06,-2.3981197e-06,-9.080409e-06,9.539347e-07,9.4387715e-06,1
1.6672136e-06,4.140168e-06,1.007482e-06,4.91929e-07,-3.0744395e-06,1.6956437e-06,1.4349055e-05,7.357627e-06,-1.1141184e-06,-9.4152565e-06,1.14700356e-07,1.0446926e-05,1
3.2419305e-07,5.8187347e-06,5.038925e-07,-2.3615398e-06,-2.5709596e-06,1.3600301e-06,1.3845589e-05,9.875215e-06,-7.142033e-07,-9.582254e-06,-3.8883698e-07,1.12872285e-05,1
-3.4742888e-07,3.8046169e-06,-5.032447e-07,-2.5294235e-06,-4.58522e-06,1.1922657e-06,1.350997e-05,4.8395873e-06,-4.8530563e-08,-9.077857e-06,-5.3126364e-08,1.061689e-05,1
-2.0261473e-06,7.834054e-07,-3.354374e-07,-3.0330061e-06,-5.7602347e-06,1.1923505e-06,1.0320914e-05,-1.0352878e-06,-1.0727325e-07,-7.902064e-06,4.5043424e-07,2.3933337e-06,1
-2.865621e-06,4.4777894e-07,-5.0332864e-07,-5.7186257e-06,-5.256758e-06,1.0245867e-06,6.9640078e-06,-1.0354403e-06,-1.8893595e-06,-6.222724e-06,4.5044584e-07,-1.3215588e-05,1
-5.159578e-07,4.478525e-07,-2.0140137e-06,-6.5579075e-06,-3.914033e-06,8.56823e-07,4.9498967e-06,6.4289856e-07,-2.3987209e-06,-4.8790844e-06,2.826084e-07,-2.7481718e-05,1
1.3301568e-06,4.4792608e-07,-2.014056e-06,-5.718693e-06,-2.5713098e-06,1.3604557e-06,3.9428755e-06,-7.0004876e-07,-2.2895624e-06,-5.213938e-06,-5.308004e-08,-3.570527e-05,1
2.0013251e-06,-2.233963e-07,-3.356062e-07,-4.7116328e-06,-2.9070789e-06,1.1926926e-06,5.285748e-06,-4.7285853e-06,-3.7359112e-06,-6.22019e-06,1.2897254e-06,-3.3857872e-05,1
3.0081922e-06,6.159224e-07,3.3574835e-07,-3.8724193e-06,-4.7534922e-06,1.8568268e-07,9.817752e-06,-6.5750824e-06,-4.4132107e-06,-6.8907443e-06,1.625435e-06,-2.3618013e-05,1
3.84721e-06,3.133736e-06,5.03555e-07,-2.3618088e-06,-5.592811e-06,-2.499818e-06,1.2671265e-05,-6.0716907e-06,-3.8004541e-06,-4.2043152e-06,9.540505e-07,-1.5392343e-05,1
9.93545e-07,3.1338097e-06,-1.678528e-06,-2.5296924e-06,-3.5786913e-06,-2.3318823e-06,1.0824996e-05,-5.232602e-06,-3.7361215e-06,-6.7864073e-07,-3.8873304e-07,-1.2202151e-05,1
-1.3565741e-06,2.804455e-07,-4.3641585e-06,-2.361876e-06,-2.2359695e-06,1.1930385e-06,7.635933e-06,-3.7221162e-06,-1.7279228e-06,-5.099524e-07,-5.3022575e-08,-1.0690452e-05,1
-1.3568035e-06,-2.0693697e-06,-5.0355984e-06,-1.5226647e-06,-2.5717402e-06,2.8716188e-06,6.7967608e-06,-2.0437822e-06,5.9829816e-08,-5.8802907e-06,4.5053787e-07,-8.003807e-06,1
-1.0213353e-06,-3.24424e-06,-3.1893e-06,-1.1870003e-06,-3.578909e-06,2.536007e-06,7.6360775e-06,-3.051037e-06,-4.364809e-08,-9.739986e-06,-5.2999727e-08,-6.659957e-06,1
3.2122858e-07,-4.922659e-06,-2.6857956e-06,-1.8584299e-06,-4.250378e-06,8.5760274e-07,7.9718475e-06,-4.393991e-06,-1.2246735e-06,-8.899904e-06,-5.298833e-08,-4.3090117e-06,1
2.8387371e-06,-7.1046256e-06,-2.182291e-06,-4.0405034e-06,-4.250451e-06,1.8629265e-07,7.4683708e-06,-3.3870558e-06,-1.2832116e-06,-5.5420846e-06,1.6255151e-06,-1.6223672e-06,1
6.6990397e-06,-7.943798e-06,-1.6814356e-07,-4.040537e-06,-2.572033e-06,-1.493172e-07,8.643387e-06,-3.023237e-08,-5.474043e-07,-3.527061e-06,1.6255264e-06,-2.785183e-07,1
9.5522455e-06,-5.5938344e-06,1.5103053e-06,-1.5228326e-06,-1.2293141e-06,-1.8277218e-06,8.643457e-06,3.3265899e-06,9.570684e-07,-3.022681e-06,-3.8865326e-07,5.617845e-07,1
1.0894808e-05,-3.9043334e-07,1.1745631e-06,-8.514681e-07,-5.5799035e-07,-2.1633311e-06,6.9650314e-06,5.004919e-06,2.409225e-06,-3.1896993e-06,-5.5649093e-07,4.0876744e-06,1
1.2237369e-05,2.7987767e-06,-6.7182236e-07,-2.0264467e-06,-8.9376294e-07,-9.882973e-07,5.622306e-06,5.6761523e-06,2.6415216e-06,-3.1888694e-06,7.8631535e-07,9.124206e-06,1
1.2740686e-05,2.7988508e-06,-8.3971537e-07,-3.3692752e-06,-2.2366328e-06,1.8673587e-07,5.118826e-06,3.8296466e-06,2.6352634e-06,-8.3815166e-07,1.6255716e-06,1.1475151e-05,1
1.1397658e-05,1.4561298e-06,5.0303447e-07,-3.7050067e-06,-2.572406e-06,1.8682528e-07,5.2867413e-06,3.0464707e-07,2.24113e-06,-1.6592735e-07,1.6255829e-06,1.0469113e-05,1
7.201195e-06,1.1205059e-06,3.351411e-07,-2.5300953e-06,6.1665446e-07,-1.995125e-06,3.7761617e-06,-3.388202e-06,1.1306702e-06,3.384466e-07,2.6326902e-06,9.127372e-06,1
-3.5225395e-07,-5.57912e-07,-1.6790941e-06,-1.3551847e-06,3.6378638e-06,-3.1699801e-06,2.6012826e-06,-6.913203e-06,1.6278709e-06,3.0248596e-06,2.6327014e-06,8.121332e-06,1
-8.409252e-06,-3.9148226e-06,-3.0219321e-06,-1.0195203e-06,2.9663915e-06,-1.994945e-06,2.6013468e-06,-1.11096015e-05,2.7444316e-06,7.389764e-06,2.8005616e-06,6.2760446e-06,1
-1.9151836e-05,-4.4182966e-06,-2.3505797e-06,-1.0195538e-06,9.5212414e-07,-1.1556076e-06,1.930014e-06,-1.1445468e-05,3.6482013e-06,8.565531e-06,3.6398196e-06,3.4236634e-06,1
-3.8119033e-05,-2.5718814e-06,-2.014926e-06,-5.1603826e-07,-1.3978425e-06,-1.155517e-06,1.4265297e-06,-5.4030647e-06,4.481011e-06,7.391408e-06,3.97553e-06,7.3913014e-07,1
-5.6582685e-05,-4.2502993e-06,-1.3435737e-06,-1.2524761e-08,-2.229746e-07,-1.323277e-06,2.2658367e-06,6.39338e-07,4.25483e-06,3.699545e-06,2.632746e-06,-2.6168007e-06,1
-6.648603e-05,-7.942908e-06,-1.3436185e-06,1.6659347e-06,1.958987e-06,-1.155335e-06,2.0980488e-06,-2.0464197e-06,2.3052007e-06,-4.958666e-07,1.6256611e-06,-1.272952e-06,1
-6.9171845e-05,-1.1803366e-05,-2.0150603e-06,2.6729963e-06,2.2946094e-06,-1.8266416e-06,9.231623e-07,-1.111045e-05,4.5233375e-07,-4.8591287e-06,1.15030225e-07,3.0921822e-06,1
-4.382685e-05,-1.1131895e-05,-2.350804e-06,2.5051138e-06,2.7980795e-06,-1.155152e-06,2.4338672e-06,-1.4131908e-05,5.619026e-07,-7.879598e-06,-5.563567e-07,4.7717285e-06,1
2.7005293e-05,-2.2161981e-07,1.668894e-07,2.0015323e-06,4.6443424e-06,1.87733e-07,3.2731712e-06,-3.557579e-06,2.137145e-06,-6.0324414e-06,2.8290236e-07,5.4441803e-06,1
9.3305505e-05,1.1192202e-05,4.1952258e-06,2.169348e-06,7.162002e-06,-6.514199e-07,1.5947395e-06,8.023844e-06,3.6411732e-06,-8.2830024e-07,2.829134e-07,7.1237273e-06,1
9.901215e-05,1.1863674e-05,4.1951803e-06,2.6728626e-06,6.490527e-06,-1.8262734e-06,-2.5154694e-07,8.35937e-06,3.2472467e-06,3.2008948e-06,9.543204e-07,7.4604786e-06,1
5.402831e-05,6.1568753e-06,1.3416977e-06,9.94337e-07,2.1263668e-06,-3.168975e-06,-7.5503704e-07,2.9880182e-06,1.8012399e-06,2.1946114e-06,9.543314e-07,4.775943e-06,1
3.16317e-07,-1.396267e-06,-2.351031e-06,-1.1877373e-06,-1.9020946e-06,-3.840278e-06,-1.9299239e-06,-1.3762375e-06,1.16044205e-07,-4.901654e-07,-5.563016e-07,7.721863e-08,1
-3.7953545e-05,-7.774464e-06,-4.700966e-06,-3.0341128e-06,-3.5806663e-06,-2.3295418e-06,-2.6012685e-06,-2.21566e-06,-7.813782e-07,-3.510642e-06,-2.4026317e-06,-3.2787127e-06,1
-6.195623e-05,-9.9564295e-06,-5.20456e-06,-4.04124e-06,-4.2521424e-06,-4.831064e-07,-4.4475537e-06,-3.3907818e-06,-7.167041e-07,-6.3632706e-06,-3.0740166e-06,-2.6062635e-06,1
-8.814094e-05,-1.314549e-05,-5.708154e-06,-4.0412738e-06,-4.5879215e-06,-1.3222608e-06,-6.9652388e-06,-8.762136e-06,-7.2349627e-07,-7.03386e-06,-3.0740057e-06,-5.910192e-07,1
-0.000119361146,-1.8348741e-05,-6.883144e-06,-5.0484027e-06,-4.4201524e-06,-2.49711e-06,-9.482924e-06,-1.5308435e-05,-4.4592167e-07,-5.522411e-06,-4.41679e-06,-1.2613635e-06,1
-0.000104254956,-1.2138245e-05,-3.022658e-06,-4.7127382e-06,-2.2381942e-06,-1.8256197e-06,-6.7972837e-06,-9.098192e-06,6.2588504e-07,5.209665e-07,-5.088175e-06,-3.9458987e-06,1
-1.8671527e-06,9.178682e-06,4.026964e-06,3.227053e-07,2.4615035e-06,5.243636e-07,9.238319e-07,1.2218481e-05,2.2974964e-06,7.5714383e-06,-2.5704262e-06,-6.966133e-06,1
0.00010975235,2.4285187e-05,8.390997e-06,4.686753e-06,4.97916e-06,2.20295e-06,6.630758e-06,2.6149788e-05,3.2465196e-06,8.579336e-06,-1.3954703e-06,-9.818517e-06,1
0.00011999092,1.8242692e-05,5.7053626e-06,4.0153227e-06,4.47553e-06,2.8744441e-06,6.1272613e-06,1.7757144e-05,1.4649268e-06,3.880359e-06,-1.0597615e-06,-1.1663807e-05,1
5.8054306e-05,6.4933197e-06,1.5090853e-06,6.5830426e-07,1.1184641e-06,4.2173333e-06,3.273873e-06,2.4826793e-06,-5.5623354e-07,1.1955711e-06,-1.3954487e-06,-1.3509097e-05,1
1.5756057e-05,5.4862976e-06,2.0125863e-06,-6.845221e-07,-1.0636584e-06,6.2316194e-06,3.609621e-06,-3.709405e-07,-4.4640458e-07,3.5712392e-07,-2.570383e-06,-1.8039975e-05,1
1.709861e-05,8.843357e-06,5.369524e-06,1.6653336e-06,-1.7351391e-06,8.2459055e-06,6.9666544e-06,5.671448e-06,2.8977755e-07,6.936203e-07,-2.570372e-06,-2.3913646e-05,1
3.2540498e-05,1.0186227e-05,6.208723e-06,4.854436e-06,-1.0638241e-06,6.567509e-06,7.973796e-06,1.0538893e-05,-1.2279244e-06,-1.448295e-07,-1.5632654e-06,-3.163366e-05,1
4.6471745e-05,1.2200492e-05,5.0337317e-06,6.029347e-06,4.4673456e-07,2.203523e-06,4.2811594e-06,1.3727843e-05,-2.6286862e-06,-6.4758177e-07,-7.2400974e-07,-3.9353676e-05,1
5.5703207e-05,1.52218545e-05,4.362287e-06,4.8543698e-06,1.1180489e-06,1.5322235e-06,3.2741104e-06,1.6077545e-05,-3.4031088e-06,-4.789384e-07,-3.8830103e-07,-3.8345526e-05,1
4.9324695e-05,1.3207739e-05,4.697938e-06,9.938034e-07,-2.24829e-07,3.882209e-06,6.463292e-06,1.7084452e-05,-4.4173516e-06,-2.156638e-06,-1.0596864e-06,-1.4006337e-05,1
1.911159e-05,1.794064e-06,3.0193985e-06,-2.0275158e-06,-8.963092e-07,3.7144569e-06,9.98817e-06,1.7252116e-05,-4.139568e-06,-4.1700373e-06,-1.3953737e-06,4.2895605e-05,1
-3.862879e-05,-1.3144442e-05,-1.1768802e-06,-1.6918511e-06,4.4639827e-07,1.364665e-06,1.0995309e-05,1.7923325e-05,-1.7248196e-06,-6.3512866e-06,1.15279946e-07,0.0001006368,1
-0.00010677582,-2.2208227e-05,-5.0374606e-06,3.2230554e-07,2.7846446e-07,-1.1529756e-06,1.0323956e-05,1.9098079e-05,-7.249603e-07,-7.86114e-06,1.1223856e-06,0.000118262025,1
-0.00014840267,-2.0865358e-05,-5.7089055e-06,2.3364644e-06,-7.2871467e-07,2.2065914e-08,5.6242206e-06,1.859434e-05,-3.8041092e-06,-5.0069157e-06,9.545472e-07,9.409278e-05,1
-0.00014034616,-1.7676148e-05,-5.037556e-06,2.336431e-06,-2.407293e-06,5.2571073e-07,9.2448147e-07,1.0705237e-05,-6.7604988e-06,-1.6491439e-06,4.5101072e-07,5.64956e-05,1
-7.924928e-05,-1.7004675e-05,-5.0376043e-06,6.579048e-07,-4.925119e-06,-1.6562312e-06,-3.4395566e-06,1.8090359e-06,-5.4250304e-06,5.3368194e-07,1.1532229e-07,3.0312165e-05,1
4.6133857e-05,-6.5979466e-06,-2.519914e-06,-1.3525405e-08,-4.253806e-06,-4.811869e-07,-5.7894053e-06,8.354965e-06,-2.1258556e-06,5.234245e-06,-7.239142e-07,1.9235165e-05,1
0.00019937995,1.7068869e-05,3.0190627e-06,2.3363314e-06,1.4529809e-06,2.3723487e-06,-4.9501186e-06,2.41326e-05,1.6317618e-06,1.3291792e-05,-5.5605466e-07,1.6718473e-05,1
0.0002487274,2.8818395e-05,6.0403004e-06,3.6790912e-06,4.977728e-06,2.8759955e-06,-7.132122e-06,2.2118216e-05,4.3099353e-06,1.5978161e-05,1.1224488e-06,1.6215976e-05,1
0.00015842427,1.8076118e-05,3.5225135e-06,3.007661e-06,2.4599033e-06,1.9050553e-07,-1.3174655e-05,-3.0593653e-06,3.5807805e-06,1.195056e-05,9.546103e-07,1.4034987e-05,1
4.5629327e-05,1.7948153e-06,-1.6808616e-06,2.1683818e-06,-5.7922843e-08,-1.1521881e-06,-1.955289e-05,-2.6222755e-05,1.7994098e-06,8.594355e-06,-8.9172124e-07,1.0511201e-05,1
-3.886446e-06,-5.0869285e-06,-3.8629505e-06,1.6648016e-06,1.1169346e-06,-2.4948827e-06,-2.2741988e-05,-2.7733595e-05,1.4562085e-06,8.595133e-06,-2.4023539e-06,7.490963e-06,1
-4.5580905e-06,-4.919003e-06,-3.023753e-06,1.3290704e-06,2.4596409e-06,-4.6768228e-06,-2.1902706e-05,-1.682359e-05,2.2377499e-06,9.938704e-06,-2.2344943e-06,8.163407e-06,1
2.9948787e-06,-3.5761338e-06,-3.023802e-06,3.219403e-07,1.1167588e-06,-6.019519e-06,-1.9384934e-05,-1.0613366e-05,1.295662e-06,1.0443028e-05,-2.234484e-06,1.1521441e-05,1
2.9946314e-06,-2.9046616e-06,-3.1917004e-06,-3.4948886e-07,-1.5689186e-06,-6.8586637e-06,-1.8209954e-05,-1.7327533e-05,-1.5653683e-06,1.0611652e-05,-2.7380206e-06,1.4208078e-05,1
-2.7124902e-06,-3.7438322e-06,-2.1846542e-06,-3.49522e-07,-2.5761012e-06,-8.201356e-06,-1.7706372e-05,-3.2434164e-05,-2.802252e-07,1.1955219e-05,-2.7380104e-06,1.4041277e-05,1
-7.412516e-06,-4.247305e-06,-6.740605e-07,-1.3566511e-06,-1.7369453e-06,-9.7119e-06,-1.753849e-05,-3.9316183e-05,3.9810493e-06,1.43058805e-05,-1.7309039e-06,1.051749e-05,1
-9.7626535e-06,-3.2401333e-06,-6.741099e-07,-1.8602312e-06,-1.9048836e-06,-1.1054592e-05,-1.41814735e-05,-3.1763167e-05,4.9804644e-06,1.5985144e-05,-1.5630446e-06,5.8187575e-06,1
-1.1441393e-05,-2.5686618e-06,-1.0098579e-06,-1.8602643e-06,-2.4085202e-06,-1.1893736e-05,-6.7960746e-06,-2.034962e-05,3.9157694e-06,1.4978819e-05,-3.0736774e-06,1.4557248e-06,1
-1.2784437e-05,-1.7293404e-06,-1.7066135e-07,-2.0281464e-06,-5.6226804e-07,-1.0718691e-05,8.577505e-08,-1.3132303e-05,2.3023579e-06,1.02798085e-05,-3.2415162e-06,-8.931181e-07,1
-1.3120385e-05,-1.7292649e-06,8.363843e-07,-2.6995776e-06,1.1161338e-06,-8.033001e-06,4.2150316e-07,-9.104124e-06,9.517939e-07,5.5807973e-06,-2.7379588e-06,1.15024704e-07,1
-1.2449237e-05,-2.2327363e-06,2.3469777e-06,-3.7067057e-06,2.4588373e-06,-4.6759137e-06,-5.855625e-07,-7.425835e-06,-9.520933e-07,2.3924276e-06,-1.8987037e-06,2.2981112e-06,1
-1.0770995e-05,-2.4005099e-06,3.6897213e-06,-3.7067387e-06,4.8086354e-06,-2.1580736e-06,-1.0890808e-06,-4.0690543e-06,-2.7333185e-06,1.2182477e-06,-1.2272955e-06,3.3062527e-06,1
-9.092752e-06,-3.4075301e-06,3.0182744e-06,-3.0353758e-06,4.4728454e-06,1.919178e-07,-2.4980787e-07,1.8054648e-06,-3.412574e-06,1.2190113e-06,-3.8804023e-07,2.3002037e-06,1
-9.428702e-06,-4.2467004e-06,2.0111288e-06,-2.3640098e-06,3.8013582e-06,1.3669655e-06,2.9393555e-06,6.0014895e-06,-1.1201768e-06,1.0519244e-06,7.869159e-07,1.9655517e-06,1
-1.1443142e-05,-4.918022e-06,1.5075307e-06,-1.3569488e-06,4.3048135e-06,5.2782144e-07,6.967764e-06,9.5261175e-06,2.9733574e-06,-4.579575e-07,-7.2371796e-07,4.1486373e-06,1
-1.3793285e-05,-4.917946e-06,1.1717817e-06,-1.6926798e-06,3.1297775e-06,1.3671716e-06,9.3176795e-06,1.1204404e-05,5.650998e-06,-2.4713888e-06,-3.7449947e-06,4.149683e-06,1
-1.4800632e-05,-3.9107745e-06,5.003342e-07,-1.8605618e-06,1.1154943e-06,2.877919e-06,7.3035126e-06,1.1372044e-05,4.586463e-06,-1.4635344e-06,-4.0806826e-06,4.5804532e-07,1
-1.4633035e-05,-1.72866e-06,8.35982e-07,-1.6927459e-06,1.1154018e-06,4.2208167e-06,3.7787029e-06,1.2378932e-05,2.9731598e-06,2.3977552e-06,-2.5700285e-06,-2.2264978e-06,1
-1.4129738e-05,-7.214872e-07,6.6808195e-07,-1.1892319e-06,1.1153089e-06,3.5495227e-06,9.2528853e-07,1.1875176e-05,1.6223299e-06,4.5805514e-06,-2.0664716e-06,-1.2183577e-06,1
-1.4465689e-05,-8.8926146e-07,1.0037295e-06,-1.3571139e-06,1.1152158e-06,2.3746827e-06,9.253114e-07,6.6716393e-06,1.5649437e-06,1.8957185e-06,-3.8796952e-07,-1.8887102e-06,1
-1.496949e-05,1.4607033e-06,2.3464725e-06,-1.3571469e-06,2.2900674e-06,3.3818822e-06,2.2681295e-06,1.6359519e-06,9.587715e-07,-1.1248143e-06,2.1297806e-06,-5.748198e-06,1
-1.4130496e-05,3.6428191e-06,3.0178182e-06,-1.6928777e-06,3.2970688e-06,5.899725e-06,3.778793e-06,-1.2176968e-06,2.7924966e-07,-2.466856e-06,2.4654885e-06,-7.929194e-06,1
-1.2955805e-05,3.1393479e-06,3.017767e-06,-1.6929107e-06,3.968372e-06,7.410473e-06,4.1145117e-06,-4.296388e-08,-9.5302715e-07,-2.8018028e-06,1.9619515e-06,-7.0889037e-06,1
-1.2284661e-05,7.895348e-07,1.171374e-06,-3.5014966e-07,4.4718245e-06,6.571333e-06,3.9466827e-06,3.985205e-06,-1.2234652e-06,-3.1367515e-06,6.191674e-07,-5.9129156e-06,1
-1.1445668e-05,-1.5602803e-06,-6.750192e-07,6.569124e-07,5.4788256e-06,6.907136e-06,4.2824e-06,7.5098255e-06,4.468144e-07,-3.136003e-06,-2.2006965e-07,-6.0797215e-06,1
-1.0438828e-05,-4.5814904e-06,-1.8500155e-06,8.247295e-07,6.150128e-06,8.0821865e-06,4.1145695e-06,6.334666e-06,2.0680277e-06,-4.4780495e-06,-7.2360774e-07,-8.092869e-06,1
-1.0103385e-05,-5.5885093e-06,-1.3465193e-06,3.2114758e-07,5.8143346e-06,9.257236e-06,3.61104e-06,2.3060693e-06,1.9654742e-06,-8.169986e-06,-8.9144686e-07,-8.595374e-06,1
-9.76794e-06,-1.7279016e-06,1.1711675e-06,-1.0216793e-06,3.1286513e-06,7.914549e-06,2.268264e-06,9.630604e-07,2.7867975e-07,-8.1692415e-06,-3.8788997e-07,-6.7479896e-06,1
-1.1110989e-05,1.2934614e-06,2.0103616e-06,-2.8680531e-06,1.1143645e-06,4.221973e-06,2.1004314e-06,4.4876783e-06,-6.1779093e-07,-6.8257045e-06,6.192169e-07,-3.0542637e-06,1
-1.4300381e-05,7.8999045e-07,3.3181732e-07,-2.364537e-06,7.7857044e-07,1.2007924e-06,1.5969e-06,7.340898e-06,-1.2238565e-06,-6.3214143e-06,1.4584717e-06,-1.2068799e-06,1
-1.5475582e-05,-1.7276735e-06,-3.3963187e-07,-1.021778e-06,7.784741e-07,-1.1489897e-06,-7.5297606e-07,8.012076e-06,-2.7428903e-06,-5.649276e-06,2.2977285e-06,-1.3736869e-06,1
-1.514014e-05,-1.8954465e-06,6.6741137e-07,1.5313422e-07,7.7837745e-07,-6.453347e-07,-1.424358e-06,8.011858e-06,-4.6464033e-06,-2.1237024e-06,2.8012853e-06,-4.7296303e-06,1
-1.5476095e-05,-1.5596725e-06,1.0030575e-06,-3.5044562e-07,2.6246214e-06,1.5368116e-06,-2.494015e-07,7.675941e-06,-4.077487e-06,1.905418e-06,3.808391e-06,-1.6142338e-05,1
-1.581205e-05,-2.9023893e-06,6.6730655e-07,-1.4780445e-08,4.4708654e-06,1.8726171e-06,9.2555524e-07,5.997227e-06,-3.4145708e-06,1.2347582e-06,3.472703e-06,-3.2086973e-05,1
-1.4133814e-05,-2.5666152e-06,6.6725397e-07,1.6636798e-06,3.1279747e-06,1.0334799e-06,-7.529238e-07,3.3114195e-06,-3.30384e-06,-2.792887e-06,2.1299186e-06,-4.165334e-05,1
-9.098594e-06,1.190489e-07,2.681392e-06,4.349235e-06,1.785082e-06,1.8728329e-06,-2.4314065e-06,5.15754e-06,-2.7348885e-06,-6.1491373e-06,9.549833e-07,-4.349864e-05,1
-1.0420896e-06,3.643959e-06,3.017038e-06,5.6919953e-06,2.9599298e-06,3.887132e-06,2.268385e-06,9.857095e-06,-7.2926554e-07,-4.80561e-06,6.1929495e-07,-4.2826203e-05,1
3.1538843e-06,4.8189804e-06,4.1919297e-06,5.3562644e-06,5.1418706e-06,5.5657324e-06,8.646667e-06,1.1031818e-05,1.0600114e-06,-1.4478927e-06,2.1299477e-06,-4.2321615e-05,1
1.4751339e-06,1.7977694e-06,3.3526303e-06,4.5169854e-06,4.973923e-06,5.2301434e-06,8.3109735e-06,9.185252e-06,1.6289983e-06,-1.7828603e-06,4.6476953e-06,-3.9467137e-05,1
-1.7142609e-06,-2.1634435e-07,-1.0115031e-06,2.8384597e-06,3.7988798e-06,2.208965e-06,5.457548e-06,7.0029887e-06,1.6203417e-06,-4.1320204e-06,4.983404e-06,-3.443062e-05,1
-2.3859159e-06,4.551279e-07,-4.0328428e-06,1.1599351e-06,3.7987804e-06,1.2019804e-06,2.6041178e-06,7.3384613e-06,1.8990294e-06,-5.4740854e-06,4.3120162e-06,-3.3086788e-05,1
-1.7147792e-06,-2.1619184e-07,-3.0258004e-06,1.3277523e-06,4.805776e-06,8.663917e-07,2.2684267e-06,7.3382357e-06,1.9645036e-06,-5.473358e-06,2.297835e-06,-4.097466e-05,1
-3.0578337e-06,-8.8751256e-07,-1.3473615e-06,1.1598696e-06,2.4557871e-06,1.0343504e-06,4.1147728e-06,5.827365e-06,2.2914573e-06,-4.4655367e-06,1.9621466e-06,-4.9701786e-05,1
-2.8902439e-06,-8.874362e-07,-5.08169e-07,-5.186551e-07,-2.2990109e-07,1.5380073e-06,4.2826273e-06,4.3164955e-06,3.5772944e-06,-3.7934155e-06,2.297854e-06,-5.1547086e-05,1
-1.54771e-06,-1.5587578e-06,4.9887274e-07,-1.6936327e-06,-3.9785053e-07,8.667214e-07,3.1076881e-06,1.9663776e-06,4.314201e-06,-4.1283906e-06,1.9621657e-06,-4.2314343e-05,1
-3.3943127e-06,-3.2371725e-06,8.345174e-07,-3.0364604e-06,-2.5799914e-06,-1.3152103e-06,-8.144295e-08,-8.87288e-07,3.8018193e-06,-4.799065e-06,2.8368314e-07,-1.51217255e-05,1
-6.9194075e-06,-3.908493e-06,-1.6832752e-06,-3.372191e-06,-4.2585843e-06,-2.8257407e-06,-5.116916e-06,-3.4052562e-06,3.9127663e-06,-4.294797e-06,-1.3948004e-06,2.8352264e-05,1
-6.080422e-06,-2.5656238e-06,-3.1939724e-06,-2.7008268e-06,-9.0170056e-07,-1.9863849e-06,-7.802502e-06,-2.7340898e-06,3.1390643e-06,-1.1049419e-06,-1.89834e-06,7.518324e-05,1
-2.0523012e-06,4.5573864e-07,-2.186931e-06,-1.8616124e-06,1.7837838e-06,1.9576625e-07,-5.2847604e-06,1.191166e-07,1.955197e-06,1.2456657e-06,-2.7375754e-06,0.000106236395,1
1.64012e-06,2.1343071e-06,-1.5155882e-06,-1.0224e-06,1.1122859e-06,1.5386715e-06,-1.2563783e-06,2.6366233e-06,8.9125365e-07,1.7499304e-06,-1.2269231e-06,0.000108923006,1
1.4720089e-06,7.9159156e-07,-2.354889e-06,-6.8673273e-07,-9.0200626e-07,2.0423302e-06,9.256601e-07,4.98628e-06,-2.1811111e-07,1.9184954e-06,4.515793e-07,8.878214e-05,1
-3.8897504e-08,-2.397468e-06,-1.8513957e-06,-6.867653e-07,-1.2378088e-06,1.2031969e-06,2.542638e-07,6.49669e-06,-5.6282033e-07,2.2549082e-06,1.6265317e-06,6.3605796e-05,1
-1.7176523e-06,-3.0687884e-06,-1.7295775e-07,-2.1974408e-06,-1.5736105e-06,-1.4822801e-06,5.899607e-07,5.321512e-06,-1.160669e-07,3.2627167e-06,1.122994e-06,4.329707e-05,1
-1.7179152e-06,-8.8667196e-07,1.0019322e-06,-2.3653224e-06,-2.9165055e-06,-1.6500169e-06,9.256569e-07,3.3070864e-06,1.2923417e-06,3.2634287e-06,-3.8764065e-07,2.8359522e-05,1
-3.968659e-08,1.1275956e-06,6.6617895e-07,-2.029657e-06,-4.259403e-06,-6.428074e-07,2.5425834e-07,1.124811e-06,6.118447e-07,1.2499482e-06,-3.8763136e-07,1.7450357e-05,1
-5.434972e-07,6.241232e-07,-2.6908608e-06,-2.7010876e-06,-3.7559596e-06,1.9655035e-07,-7.528399e-07,6.210269e-07,-7.876885e-07,-5.9568407e-07,6.194749e-07,8.891082e-06,1
-1.3830082e-06,-1.8935383e-06,-6.0479006e-06,-3.0368192e-06,-3.0846675e-06,1.2037593e-06,-5.849949e-07,2.2992824e-06,-1.3934365e-06,-5.949761e-07,-5.5546184e-07,1.8424485e-06,1
1.2737057e-07,-3.2362548e-06,-7.39075e-06,-1.3583588e-06,-4.5954134e-06,5.324745e-07,-4.171506e-07,3.977538e-06,-1.9061728e-06,4.128259e-07,-3.0731896e-06,-2.184898e-06,1
1.973448e-06,-2.229083e-06,-7.894352e-06,-6.8699325e-07,-6.27401e-06,-2.152999e-06,1.597037e-06,2.6345058e-06,-1.7950084e-06,4.1353127e-07,-2.5696334e-06,-4.8694515e-06,1
4.658771e-06,-1.5576104e-06,-6.2159156e-06,-1.6941218e-06,-6.9455127e-06,-4.3349255e-06,2.9398227e-06,-2.0655116e-06,-1.0579266e-06,-1.432106e-06,-8.911322e-07,-6.2112117e-06,1
4.322808e-06,-1.5575338e-06,-3.0268352e-06,-2.3655502e-06,-5.602824e-06,-4.8383604e-06,3.2755138e-06,-4.751339e-06,-7.3150557e-07,-2.7741971e-06,-1.730368e-06,-6.5458757e-06,1
1.9726526e-06,-1.8931551e-06,-3.4130318e-07,-1.0227908e-06,-4.0922855e-06,-4.1668472e-06,3.6112053e-06,-3.576635e-06,2.1895939e-07,-2.6056466e-06,-4.415948e-06,-1.3090963e-05,1
1.9723868e-06,-2.9001733e-06,1.3371335e-06,-3.5142526e-07,-3.420995e-06,-3.159639e-06,2.9398e-06,-3.4090265e-06,9.560749e-07,-2.2692477e-06,-5.7587326e-06,-2.9203457e-05,1
4.3220107e-06,-3.2357946e-06,8.335301e-07,-1.6942518e-06,-3.7567988e-06,-2.8238244e-06,2.604093e-06,-6.2627055e-06,2.7531232e-07,-1.597152e-06,-4.4159297e-06,-4.1791118e-05,1
5.664537e-06,-2.9000198e-06,3.299265e-07,-3.2049281e-06,-4.260452e-06,-1.4809176e-06,4.282574e-06,-7.4378927e-06,8.901342e-07,-8.581126e-08,-3.875395e-07,-4.413997e-05,1
3.9857787e-06,-2.2285462e-06,-1.0129235e-06,-3.2049606e-06,-4.4284075e-06,1.9769044e-07,5.7932084e-06,-4.249e-06,2.2986815e-06,-4.2081325e-07,2.1302096e-06,-4.1621202e-05,1
2.8105667e-06,-1.2213743e-06,-2.691472e-06,-1.022953e-06,-2.5821735e-06,2.9956727e-08,5.4574994e-06,-1.2279578e-06,2.9606242e-06,-2.26646e-06,1.2909716e-06,-3.7591788e-05,1
3.8173944e-06,1.1285924e-06,-4.034322e-06,2.3340006e-06,-9.037875e-07,-1.8162698e-06,3.6111444e-06,-8.925038e-07,2.7362541e-06,-4.112108e-06,1.9623785e-06,-3.2051732e-05,1
4.9920727e-06,3.8142562e-06,-3.0272827e-06,5.0195563e-06,1.0319913e-07,-3.494646e-06,2.5414664e-07,1.1434615e-07,1.2913987e-06,-1.7615259e-06,4.1444277e-06,-2.8190167e-05,1
5.663201e-06,6.164224e-06,-5.096008e-07,6.362317e-06,6.0664047e-07,-4.501625e-06,-4.781343e-06,1.6247436e-06,-2.075129e-06,4.1138883e-06,3.8087376e-06,-2.3657207e-05,1
4.991537e-06,7.507093e-06,1.6723827e-06,7.36938e-06,1.7814755e-06,-3.830112e-06,-1.0152534e-05,2.817024e-07,-1.9637457e-06,8.478659e-06,9.553096e-07,-1.7277905e-05,1
2.9770763e-06,5.1572806e-06,2.0080247e-06,7.0336496e-06,3.7955592e-06,-1.9836543e-06,-1.38452315e-05,-1.061339e-06,-7.229793e-07,9.98999e-06,-2.196265e-07,-9.38796e-06,1
2.912196e-07,3.1431678e-06,6.6517396e-07,6.8657682e-06,2.7883557e-06,-2.8227826e-06,-1.7202232e-05,-1.3972858e-06,2.2886763e-06,9.822828e-06,1.2910255e-06,-1.3301665e-06,1
-1.0518435e-06,2.4718477e-06,-1.3490737e-06,5.1872435e-06,-4.00889e-07,-3.4940638e-06,-2.0055684e-05,-3.4117254e-06,4.2464562e-06,1.1502007e-05,9.553363e-07,3.8741905e-06,1
-3.8071482e-07,3.6468684e-06,-2.6919247e-06,9.909801e-07,-1.9116421e-06,-3.3260976e-06,-2.1398497e-05,-4.083372e-06,1.9624222e-06,1.50275255e-05,-1.0588458e-06,9.246395e-06,1
9.618095e-07,5.8289856e-06,-2.1884339e-06,-1.1910932e-06,-1.9117515e-06,-2.6545822e-06,-1.7873681e-05,-3.747924e-06,1.6170047e-06,1.5531756e-05,1.1610804e-07,1.864698e-05,1
1.8007856e-06,6.1647625e-06,4.970966e-07,-1.840295e-07,-2.918955e-06,-2.4866156e-06,-8.474142e-06,-3.0767783e-06,2.5677443e-06,1.2007604e-05,1.6267588e-06,3.4257988e-05,1
2.1362134e-06,3.1435525e-06,2.6790794e-06,1.4944312e-06,-5.436805e-06,-1.6472527e-06,-9.209443e-07,-1.0628389e-06,-3.876517e-07,7.1406566e-06,9.553717e-07,5.5911572e-05,1
1.9680938e-06,1.8008344e-06,3.1825696e-06,3.34074e-06,-4.9333685e-06,3.6705637e-07,-2.4956822e-07,-5.5995663e-08,-2.0759526e-06,4.7914464e-06,1.16134466e-07,7.890794e-05,1
9.60728e-07,2.4723095e-06,2.6789646e-06,3.6764056e-06,-2.3369881e-07,1.3742707e-06,-1.0888339e-06,-1.3990433e-06,-1.6287061e-06,3.785029e-06,1.4589363e-06,8.4112304e-05,1
6.2475783e-07,3.4794814e-06,2.3432085e-06,3.0049764e-06,1.4446824e-06,1.3743892e-06,1.2610317e-06,-3.4134878e-06,-1.0592335e-06,1.2679673e-06,9.553979e-07,6.1621526e-05,1
2.3029795e-06,3.6474075e-06,3.8537937e-06,1.6621512e-06,9.410243e-07,2.213753e-06,3.4430516e-06,-5.092235e-06,2.7366326e-07,-1.5847944e-06,-1.0587843e-06,2.8220556e-05,1
3.6455008e-06,1.8011425e-06,5.364379e-06,-3.5207194e-07,-2.3403206e-07,3.1832975e-08,2.1002356e-06,-6.099586e-06,2.1741795e-07,-2.4233666e-06,-3.873796e-07,2.54065e-06,1
4.4844755e-06,1.4655217e-06,5.364321e-06,-1.6948982e-06,-1.5769388e-06,-2.1500878e-06,2.4359101e-06,-2.4071585e-06,-2.2343625e-06,-2.4065366e-07,1.9625202e-06,-1.0214865e-05,1
5.6591475e-06,2.8083937e-06,3.6857707e-06,-1.3592323e-06,-7.378026e-07,-2.1499684e-06,3.9465276e-06,1.453117e-06,-3.0835934e-06,1.270661e-06,2.8017737e-06,-1.4745769e-05,1
7.337367e-06,2.3049217e-06,1.167974e-06,-3.5216846e-07,2.6917914e-07,-4.7135566e-07,3.610805e-06,4.4741464e-06,-2.3005373e-06,-7.146279e-08,7.8759234e-07,-1.8101728e-05,1
6.665698e-06,1.8014509e-06,-2.0212196e-06,-5.2004964e-07,-2.3448037e-07,1.5429542e-06,5.79282e-06,6.823778e-06,-1.898848e-06,-3.09208e-06,-3.87345e-07,-1.9611345e-05,1
4.9869327e-06,3.64787e-06,-3.196223e-06,-1.6950268e-06,-2.3459316e-07,1.8787724e-06,8.31053e-06,1.1355447e-05,-1.9089211e-06,-5.94485e-06,6.1976056e-07,-1.742828e-05,1
7.5043977e-06,5.1585903e-06,-2.8605828e-06,-2.366455e-06,1.0099178e-07,3.2216878e-06,8.814053e-06,1.8740553e-05,-6.222607e-07,-5.1049374e-06,9.554672e-07,-1.5413063e-05,1
1.10289575e-05,4.4872713e-06,-1.6856967e-06,-3.037886e-06,-2.3481958e-07,4.9003006e-06,7.3033802e-06,2.3272223e-05,-5.2688787e-08,-2.418685e-06,2.2982697e-06,-1.6586984e-05,1
8.678794e-06,2.3053076e-06,-2.0214536e-06,-3.037918e-06,1.1078608e-06,5.5718174e-06,4.9534647e-06,2.3439812e-05,-3.9854828e-07,-1.5787751e-06,2.9696741e-06,-1.9607245e-05,1
2.635947e-06,7.9474285e-07,-3.532156e-06,-3.373648e-06,3.4576358e-06,4.2291463e-06,2.9392424e-06,1.9914716e-05,-2.1331202e-06,-2.0816606e-06,2.6339846e-06,-2.1956112e-05,1
-8.8916056e-07,-2.122759e-07,-4.371461e-06,-4.0450764e-06,5.6395616e-06,3.2221715e-06,2.7713634e-06,1.2696936e-05,-4.081252e-06,-3.5916428e-06,2.2982952e-06,-2.329788e-05,1
-3.8588848e-07,-1.0514457e-06,-2.8608767e-06,-3.5415612e-06,5.1358993e-06,4.397238e-06,4.1141257e-06,1.2829252e-06,-5.937844e-06,-5.4373245e-06,2.9696996e-06,-2.3968256e-05,1
2.852323e-07,-3.799704e-07,-6.788958e-07,-3.7094424e-06,3.7929915e-06,3.893811e-06,2.603452e-06,-1.4830865e-05,-5.4903203e-06,-4.7652698e-06,1.962614e-06,-2.1617343e-05,1
-3.4077261e-06,1.2985988e-06,4.9598975e-07,-4.7165704e-06,4.6321225e-06,8.7264783e-07,2.5352966e-07,-3.3630244e-05,-3.9135844e-06,-3.589668e-06,-7.229665e-07,-1.7923638e-05,1
-7.604232e-06,7.9512915e-07,3.2808117e-07,-4.3809023e-06,4.967705e-06,-1.477121e-06,-1.4249944e-06,-4.3365766e-05,-4.2596216e-06,-1.9105205e-06,-2.0657521e-06,-1.3894233e-05,1
-8.779453e-06,-1.7225335e-06,-1.0147721e-06,-1.3596493e-06,2.4498515e-06,-2.8197906e-06,-3.103522e-06,-3.5644967e-05,-4.6512873e-06,1.04324734e-07,-1.0586477e-06,-1.2886116e-05,1
-5.7584425e-06,-1.5546073e-06,-1.35053e-06,2.3330026e-06,6.0339454e-07,-2.148272e-06,-4.179685e-07,-2.0035253e-05,-2.7388212e-06,-1.7413639e-06,7.877026e-07,-1.5570682e-05,1
-1.7303381e-06,4.5966112e-07,-7.7959434e-09,2.6686687e-06,1.1068254e-06,-1.9803e-06,4.281774e-06,-7.614678e-06,-7.350567e-07,-1.0301024e-05,1.459107e-06,-1.8590948e-05,1
-1.898464e-06,3.4810255e-06,3.6848276e-06,3.1874683e-07,9.388599e-07,-2.651573e-06,6.1280816e-06,-7.447097e-06,-7.909687e-07,-2.1881971e-05,9.555682e-07,-1.8589926e-05,1
-5.423575e-06,4.32035e-06,4.3561645e-06,-1.698311e-08,-4.0405084e-07,-2.4836006e-06,4.281702e-06,-1.970036e-05,-1.0605083e-06,-2.7588196e-05,1.2912745e-06,-1.6742564e-05,1
-8.109441e-06,2.4740852e-06,6.634215e-07,1.829327e-06,-1.2434149e-06,-1.140683e-06,3.9459665e-06,-3.027513e-05,-1.7424211e-06,-2.6580454e-05,9.555848e-07,-1.5398751e-05,1
-7.77402e-06,9.635196e-07,-1.3508294e-06,1.325748e-06,-1.5792311e-06,-1.8119572e-06,6.9672155e-06,-2.5743473e-05,-1.9661263e-06,-2.154433e-05,6.1989505e-07,-1.45584845e-05,1
-5.4244088e-06,-1.889841e-06,-1.6865881e-06,-1.7078811e-08,-2.9221408e-06,-1.3082862e-06,1.0492011e-05,-1.315505e-05,-8.928387e-07,-1.4494018e-05,-3.8719372e-07,-1.4893164e-05,1
-4.417591e-06,-5.4145976e-06,-2.0223467e-06,-3.5280868e-07,-5.27215e-06,2.0248201e-07,1.30097105e-05,-4.091463e-06,-7.355929e-07,-6.1009114e-06,-1.2264305e-06,-1.3381502e-05,1
-4.0821715e-06,-8.267957e-06,-1.3510102e-06,-5.206895e-07,-6.7829105e-06,1.0418535e-06,1.3177519e-05,-1.0704489e-06,-2.134187e-06,2.2921927e-06,-5.147836e-08,-9.855649e-06,1
-1.7325615e-06,-7.260784e-06,6.6312015e-07,-1.3599683e-06,-6.4473293e-06,-8.043638e-07,1.3009629e-05,-2.3147602e-07,-3.5786054e-06,8.503255e-06,1.7948728e-06,-6.8333447e-06,1
1.4562953e-06,-3.9037213e-06,3.5164967e-06,-1.0243022e-06,-5.7760517e-06,-2.65058e-06,1.267389e-05,2.2859888e-06,-2.750051e-06,1.2532277e-05,1.794881e-06,-3.9788897e-06,1
1.7917138e-06,-2.2251518e-06,5.027079e-06,-3.52936e-07,-4.601226e-06,-4.6841478e-07,1.2841696e-05,4.9713026e-06,-2.8805613e-07,1.6393447e-05,7.8779306e-07,-7.887375e-07,1
1.4557361e-06,6.2836176e-07,4.859169e-06,-3.5296782e-07,-3.59425e-06,3.7095558e-07,1.099531e-05,6.6495204e-06,1.6245428e-06,2.1261712e-05,-1.5620878e-06,8.907726e-07,1
2.798249e-06,3.3140282e-06,4.35556e-06,-1.8515058e-07,-1.9158776e-06,2.0323218e-07,7.4704317e-06,5.6421486e-06,2.1173112e-06,2.3947934e-05,-3.408422e-06,1.2274883e-06,1
4.9800096e-06,2.8105587e-06,1.6699116e-06,-1.7333347e-08,9.819356e-08,-9.71586e-07,5.791896e-06,5.138325e-06,2.5651705e-06,2.2437926e-05,-3.4084137e-06,1.5642025e-06,1
4.979729e-06,1.1321433e-06,-1.6871343e-06,-3.530631e-07,1.1051694e-06,-3.489199e-06,5.288304e-06,5.473746e-06,2.7993099e-06,1.7235232e-05,-5.1421754e-08,3.0758615e-06,1
4.1402013e-06,2.9297382e-07,-3.0299893e-06,-2.0315867e-06,1.7764451e-06,-3.3212236e-06,1.5955749e-06,2.452181e-06,2.6205928e-06,1.4046728e-05,1.9627782e-06,3.748275e-06,1
4.811318e-06,-2.1049561e-07,-2.1908045e-06,-3.2065645e-06,1.7763244e-06,-3.8246444e-06,-1.7614569e-06,6.0556124e-07,3.5720561e-06,1.2368866e-05,1.4592372e-06,-7.8264077e-07,1
4.6431865e-06,-2.1041805e-07,1.6696665e-06,-2.5351983e-06,7.6910953e-07,-6.0065595e-06,-3.7756975e-06,2.6194732e-06,5.316872e-06,7.1661684e-06,-3.8709683e-07,-7.999142e-06,1
3.3001108e-06,-1.0495875e-06,4.3551927e-06,-2.53523e-06,4.332883e-07,-6.3421307e-06,-1.0657564e-05,2.6191933e-06,5.3059157e-06,2.6348662e-06,2.8431012e-07,-1.3872852e-05,1
-1.7356482e-06,-1.2173589e-06,3.6837341e-06,-3.5423575e-06,1.1045648e-06,-6.8455506e-06,-1.7371582e-05,-4.0237396e-07,2.900451e-06,2.6354921e-06,2.298508e-06,-2.2599997e-05,1
-8.785599e-06,-1.0494323e-06,3.0122756e-06,-2.5352933e-06,2.782936e-06,-7.181121e-06,-2.0896467e-05,-3.7596399e-06,-5.447976e-08,5.9931012e-06,2.298516e-06,-3.3509183e-05,1
-1.2478564e-05,-2.2242987e-06,3.180063e-06,-1.758689e-08,3.286361e-06,-7.852391e-06,-2.1064365e-05,-4.0956206e-06,-1.911866e-06,8.007915e-06,2.1306748e-06,-3.8040103e-05,1
-1.147175e-05,-3.231316e-06,3.3478502e-06,1.6608744e-06,4.125485e-06,-7.852263e-06,-1.7707433e-05,-1.2424658e-06,-3.4780282e-06,6.833593e-06,3.3056267e-06,-3.3507156e-05,1
-6.772257e-06,-2.5598424e-06,2.6763914e-06,8.2159687e-07,5.1324573e-06,-4.4951494e-06,-1.1161364e-05,1.274989e-06,-3.747338e-06,7.841309e-06,3.3056344e-06,-2.4442288e-05,1
9.4852567e-07,4.615213e-07,3.0120277e-06,-2.3675698e-06,4.1252392e-06,-1.3094133e-07,-3.272502e-06,3.960293e-06,-3.4227726e-06,1.170246e-05,1.6271492e-06,-1.8398703e-05,1
5.64802e-06,3.147188e-06,4.1869102e-06,-2.5354514e-06,1.9430752e-06,1.8833772e-06,-8.341926e-08,7.316993e-06,-2.1354413e-06,1.4052968e-05,6.20063e-07,-1.4705009e-05,1
6.151284e-06,2.4758685e-06,4.186848e-06,6.5365214e-07,2.9500486e-06,1.5478079e-06,-1.0905683e-06,1.0337994e-05,-3.9052776e-07,1.3717885e-05,1.7950158e-06,-9.836369e-06,1
5.3117537e-06,7.9745433e-07,2.8439913e-06,4.0106056e-06,4.964115e-06,8.765408e-07,-1.5941699e-06,1.2687597e-05,-1.0731455e-06,1.0529366e-05,2.2985705e-06,-2.6795178e-07,1
3.6329764e-06,9.65381e-07,2.1725318e-06,5.521217e-06,4.124745e-06,7.0882095e-07,-1.9299234e-06,1.40301045e-05,-2.1356475e-06,6.165899e-06,9.557842e-07,1.081111e-05,1
1.6185016e-06,1.8047037e-06,2.00462e-06,3.6748436e-06,1.7747307e-06,2.3874422e-06,-2.0978284e-06,1.3358419e-05,-3.0762897e-06,2.6416774e-06,1.16545884e-07,1.8365336e-05,1
1.6182166e-06,2.9413846e-07,2.3402556e-06,1.9963202e-06,2.639632e-07,4.569612e-06,-4.193954e-07,9.665447e-06,-1.7448056e-06,1.1316453e-06,6.2010156e-07,2.6926655e-05,1
2.2893282e-06,-2.2235217e-06,2.6758912e-06,1.3248927e-06,-7.1859624e-08,4.7375906e-06,9.2334e-07,6.643873e-06,2.1403598e-07,4.3213904e-06,1.6272032e-06,4.4719684e-05,1
3.6318356e-06,-3.06269e-06,2.0044313e-06,1.6605592e-06,4.3156228e-07,2.8913798e-06,-1.0909073e-06,3.622297e-06,-5.5872397e-07,8.014682e-06,9.558148e-07,6.872313e-05,1
2.9601529e-06,-1.0484223e-06,1.3329714e-06,2.1640747e-06,2.10993e-06,2.555811e-06,-1.9302113e-06,2.6149107e-06,-2.080765e-06,7.0081933e-06,-3.869726e-07,8.550907e-05,1
-7.328153e-07,9.658474e-07,1.165059e-06,1.6604963e-06,3.4525983e-06,2.7237916e-06,-1.4267241e-06,3.957414e-06,-4.5756465e-07,4.826759e-06,-3.86965e-07,8.483868e-05,1
-1.7401977e-06,-5.4471775e-07,3.2574945e-07,1.8283139e-06,3.7881714e-06,2.7239223e-06,-3.7766756e-06,6.47486e-06,1.4552938e-06,3.1488707e-06,-1.0583535e-06,6.570487e-05,1
2.1200476e-06,-3.230228e-06,-3.4571093e-07,3.1710765e-06,3.4523462e-06,2.556203e-06,-5.119529e-06,7.3138144e-06,2.283055e-06,1.303132e-06,-1.3940439e-06,3.7003658e-05,1
4.973199e-06,-2.2230552e-06,8.291703e-07,3.842441e-06,2.4451247e-06,1.5492383e-06,-3.9446477e-06,6.6421244e-06,3.906311e-06,1.3037335e-06,-1.5618854e-06,1.4512868e-05,1
6.987102e-06,2.9476064e-07,1.8362022e-06,3.1710138e-06,1.102204e-06,2.0657562e-07,-3.7768614e-06,7.313228e-06,3.133614e-06,2.6471275e-06,-5.547839e-07,4.1072217e-06,1
6.818965e-06,-1.2158046e-06,1.5764613e-07,1.9960373e-06,7.6637906e-07,1.0459541e-06,-4.1993977e-07,9.830671e-06,2.6184932e-06,2.3120278e-06,6.2016954e-07,-8.8004604e-08,1
4.9723362e-06,-3.901314e-06,-1.6887593e-06,1.32461e-06,9.341008e-07,2.221029e-06,2.601283e-06,1.2515964e-05,2.8990128e-06,1.3055296e-06,2.6343669e-06,-2.1011892e-06,1
3.964952e-06,-3.9012357e-06,-6.8172784e-07,1.6602768e-06,-9.123678e-07,2.556861e-06,2.6012183e-06,9.997931e-06,2.2941972e-06,-3.6668347e-08,3.8093194e-06,-5.895421e-07,1
4.132513e-06,-1.38342e-06,4.931529e-07,1.6602455e-06,-3.2623866e-06,2.7248432e-06,1.5940587e-06,5.6335525e-06,7.718924e-07,-5.3962134e-07,2.9700798e-06,2.5070955e-07,1
3.6286765e-06,4.6299886e-07,1.8358827e-06,2.331611e-06,-2.9268147e-06,2.2214256e-06,2.6010866e-06,3.2833666e-06,5.4892143e-07,-7.068774e-07,3.1379361e-06,-2.7695726e-06,1
2.9569908e-06,1.1344747e-06,2.0036678e-06,1.995881e-06,4.3003993e-07,1.7180114e-06,4.2795104e-06,2.9473697e-06,1.9583276e-06,-1.2098333e-06,4.6485875e-06,-6.7969504e-06,1
-6.4584356e-08,2.3094965e-06,1.1643573e-06,1.3244537e-06,3.4511984e-06,8.7889924e-07,5.2865407e-06,3.45062e-06,2.4501264e-06,-2.7198857e-06,3.4736508e-06,-7.131646e-06,1
-1.5171306e-05,2.8131235e-06,1.5719752e-07,1.9958184e-06,2.9475225e-06,2.0763434e-07,3.1044303e-06,3.6181698e-06,1.2201173e-06,-2.0479e-06,6.2022116e-07,-6.459246e-06,1
-4.1020376e-05,1.1347083e-06,-1.5213594e-06,2.3314863e-06,9.332022e-07,2.0776766e-07,1.2580183e-06,3.4500208e-06,-1.7345255e-06,-3.0544077e-06,-2.5689076e-06,-6.458243e-06,1
-6.250537e-05,-2.8935958e-06,-1.8571226e-06,8.208121e-07,2.6167473e-07,2.079012e-07,1.4258014e-06,5.962819e-07,-2.753458e-06,-6.5786558e-06,-3.4081463e-06,-5.1144475e-06,1
-7.207306e-05,-7.089749e-06,-3.0321316e-06,-1.5291091e-06,9.32943e-07,-1.8061561e-06,8.293486e-08,-4.7751946e-06,-1.8013706e-06,-1.02707545e-05,-3.575988e-06,-2.4581811e-07,1
-6.636648e-05,-1.0950203e-05,-4.7106887e-06,-2.0326872e-06,1.100662e-06,-6.002254e-06,-1.2599295e-06,-1.2160863e-05,6.151956e-07,-1.245221e-05,-2.7367348e-06,3.9514152e-06,1
-2.1551028e-05,-7.5931403e-06,-4.375055e-06,-3.5422642e-07,7.648337e-07,-6.169969e-06,1.0898856e-06,-9.13988e-06,1.6103654e-06,-8.758944e-06,-1.7296317e-06,3.2810178e-06,1
5.633073e-05,3.1492891e-06,-1.6895326e-06,2.3313305e-06,1.1004012e-06,-2.1414514e-06,4.278949e-06,7.8125895e-06,8.840179e-07,-3.2193393e-06,-1.2260775e-06,-4.106649e-07,1
0.000102992526,1.0702582e-05,-1.0182007e-06,2.6669973e-06,2.4430644e-06,1.2156681e-06,4.6145733e-06,2.1072377e-05,4.471782e-07,-1.8759662e-06,-1.0582213e-06,-2.5917054e-06,1
8.150753e-05,1.0031264e-05,-3.0324566e-06,2.1634182e-06,1.4358372e-06,2.5585969e-06,4.278801e-06,1.7882936e-05,2.6731476e-07,-4.057428e-06,-1.0582143e-06,-4.772746e-06,1
2.8131184e-05,4.995864e-06,-3.871768e-06,1.4919913e-06,-9.1418207e-07,5.4454e-07,4.614424e-06,7.3081287e-06,-1.1303712e-06,-7.0781375e-06,-1.3939051e-06,-7.960883e-06,1
-5.7746547e-06,1.1354099e-06,-3.7039845e-06,8.205632e-07,-1.5857127e-06,-2.4766098e-06,3.942953e-06,4.260034e-07,-2.0707282e-06,-1.0098849e-05,-3.408089e-06,-1.1820416e-05,1
-1.1146123e-05,1.4711858e-06,-3.3683514e-06,-3.5441286e-07,-7.5200596e-08,-2.4764743e-06,6.796314e-06,-1.4206449e-06,-1.0757337e-06,-1.0433973e-05,-6.09367e-06,-1.58478e-05,1
-9.076113e-07,4.492551e-06,-3.3684169e-06,-1.8745887e-08,7.639142e-07,-4.6214754e-07,1.4181604e-05,-7.4955517e-07,1.21932e-06,-7.244265e-06,-5.086567e-06,-2.1553677e-05,1
1.7051963e-05,6.842518e-06,-2.0256887e-06,9.883191e-07,-4.111632e-07,1.8878764e-06,1.7034963e-05,-7.846609e-08,1.6217882e-06,-3.8867097e-06,-2.400973e-06,-2.793095e-05,1
3.3836594e-05,9.863883e-06,-1.3543576e-06,3.1689012e-07,-9.1484293e-07,3.7343546e-06,1.3006503e-05,-4.1447396e-07,7.703527e-07,-2.375497e-06,-3.8677595e-07,-3.111909e-05,1
3.685759e-05,1.2381698e-05,-1.1865744e-06,-1.1937839e-06,-5.7927787e-07,4.2380398e-06,8.3066425e-06,-2.7646727e-06,2.1202648e-07,-2.7106266e-06,-3.86769e-07,-2.5914767e-05,1
2.6282793e-05,9.8640385e-06,-3.4739418e-07,-2.3687578e-06,4.2768286e-07,3.5667783e-06,6.963771e-06,-1.2543394e-06,2.788278e-07,-3.7171556e-06,-5.5461106e-07,-4.764767e-06,1
1.3525956e-05,3.653694e-06,1.1631829e-06,-1.6973927e-06,1.6024943e-06,3.5669152e-06,8.4743315e-06,3.9486763e-06,7.7009867e-07,-3.71659e-06,-1.3938492e-06,3.317016e-05,1
4.7975022e-06,-3.731594e-06,-1.1827976e-08,8.203154e-07,1.0988135e-06,4.23845e-06,8.9778005e-06,7.976746e-06,-7.952649e-07,-3.716026e-06,-3.2401833e-06,6.472681e-05,1
-3.259557e-06,-8.431295e-06,-2.8653312e-06,2.6666255e-06,-2.441145e-07,4.2385873e-06,9.984813e-06,9.3192275e-06,-3.0783215e-06,-5.058257e-06,-3.4080263e-06,6.439211e-05,1
-9.805971e-06,-1.0277558e-05,-4.2081915e-06,9.881027e-07,-9.156448e-07,3.7351758e-06,9.313334e-06,5.9619297e-06,-3.2585367e-06,-4.889847e-06,-1.7295265e-06,4.1062052e-05,1
-1.6855933e-05,-9.270385e-06,-3.2011628e-06,-1.1939692e-06,-5.800814e-07,5.2459563e-06,6.2919635e-06,-4.166543e-07,5.473336e-07,-5.3928343e-06,-3.8672766e-07,1.5717811e-05,1
-2.340235e-05,-7.759664e-06,-2.361983e-06,-3.040342e-06,4.2687776e-07,4.7425474e-06,1.2564001e-06,-5.4524453e-06,4.6425785e-06,-6.399371e-06,-1.0581168e-06,-7.304206e-07,1
-1.6688675e-05,-5.913244e-06,-2.026351e-06,-3.0403728e-06,1.0981406e-06,1.8892473e-06,-4.2217582e-07,-3.7742677e-06,2.951633e-06,-7.070211e-06,1.16834926e-07,-6.4363016e-06,1
7.48132e-06,-3.0597287e-06,-1.187172e-06,-8.5836166e-07,2.7764981e-06,5.4659154e-07,-4.222615e-07,2.9393857e-06,-6.2780515e-07,-6.7339574e-06,2.6345797e-06,-6.0996113e-06,1
3.3833352e-05,1.4722783e-06,4.912537e-07,-3.5484547e-07,4.6227037e-06,1.889524e-06,-1.0937439e-06,9.31734e-06,-1.400158e-06,-4.551363e-06,2.2988884e-06,-5.091524e-06,1
4.021133e-05,5.6685863e-06,8.268852e-07,-1.8655193e-06,4.454718e-06,5.468687e-07,-6.129308e-06,1.4016804e-05,9.371902e-07,6.5251663e-07,2.8470515e-07,-3.747739e-06,1
2.8629436e-05,3.9901724e-06,-6.8382514e-07,-3.040496e-06,2.9439395e-06,-9.636344e-07,-1.1164874e-05,1.6702073e-05,3.0646834e-06,6.0242437e-06,-5.5453614e-07,-2.5718039e-06,1
1.3522707e-05,1.2971861e-07,-1.0195907e-06,-3.0405267e-06,2.104556e-06,-3.3133854e-06,-1.4354098e-05,1.5358963e-05,2.1245135e-06,8.542533e-06,-3.8668048e-07,-4.5850043e-06,1
4.2907027e-06,-1.5486963e-06,-1.3553564e-06,-3.7119535e-06,2.7758174e-06,-5.159588e-06,-1.45220365e-05,1.2673054e-05,7.690902e-07,7.3681363e-06,-1.3937679e-06,-7.77315e-06,1
1.2691198e-06,-5.4152116e-07,-2.19467e-06,-4.38338e-06,3.6149254e-06,-5.1594484e-06,-1.2675785e-05,9.819298e-06,1.0502993e-06,4.3473974e-06,-3.0722533e-06,-8.779256e-06,1
5.9742445e-07,8.0135095e-07,-1.5233405e-06,-3.879864e-06,2.775543e-06,-3.8165135e-06,-8.815344e-06,7.972635e-06,1.956501e-06,2.8373001e-06,-1.3937546e-06,-9.4496645e-06,1
9.3282586e-07,4.6572907e-07,1.5508427e-07,-1.6978544e-06,1.6004595e-06,-4.6556197e-06,-5.961997e-06,5.6224253e-06,2.1116343e-06,3.3413924e-06,9.56141e-07,-1.079147e-05,1
9.328101e-08,-2.055888e-07,9.942628e-07,-3.5509106e-07,2.5752772e-07,-5.1590287e-06,-5.458542e-06,2.6008179e-06,3.787108e-07,4.6847294e-06,1.7953945e-06,-1.07904825e-05,1
-4.606796e-06,4.658853e-07,8.263458e-07,3.1627434e-07,-1.2532533e-06,-4.151791e-06,-3.7801428e-06,-1.0921875e-06,-2.9112882e-06,5.3566678e-06,6.2045603e-07,-1.01180985e-05,1
-1.2831705e-05,6.338125e-07,-1.8081752e-07,1.4911898e-06,-2.9318826e-06,-4.1516505e-06,1.5909417e-06,-7.63863e-06,-5.4418315e-06,7.539248e-06,-5.5448345e-07,-1.1963453e-05,1
-2.0888767e-05,-3.732034e-07,-1.8088548e-07,3.1621315e-07,-2.5963232e-06,-5.494305e-06,6.7941724e-06,-1.5527869e-05,-5.6640533e-06,8.714732e-06,-7.223259e-07,-1.5487301e-05,1
-2.7267339e-05,-2.2194672e-06,1.5474495e-07,-2.3694033e-06,-1.2536691e-06,-4.822768e-06,9.311816e-06,-2.073152e-05,-5.764886e-06,6.7010783e-06,-5.544705e-07,-1.7500506e-05,1
-2.5924845e-05,-1.8836911e-06,-8.524186e-07,-4.383625e-06,-9.181082e-07,-4.4869266e-06,8.3046225e-06,-2.358528e-05,-4.6028335e-06,4.016026e-06,-5.54464e-07,-1.6492424e-05,1
-1.1322259e-05,1.80907e-06,-1.6917331e-06,-5.7264497e-06,-1.5896466e-06,-3.1439922e-06,8.136677e-06,-2.3585606e-05,-3.146505e-06,4.016561e-06,-8.901556e-07,-1.3470154e-05,1
8.147953e-06,5.166133e-06,-1.0204045e-06,-4.7193857e-06,-1.2540872e-06,1.0523814e-06,1.13257165e-05,-1.6871963e-05,-2.5759111e-06,5.359888e-06,-1.8972452e-06,-1.3133471e-05,1
1.6875814e-05,4.9983623e-06,3.2232097e-07,-2.0338275e-06,4.2426487e-07,5.0809044e-06,1.5018301e-05,-6.8013355e-06,-1.2460972e-06,5.0247213e-06,-1.7293878e-06,-1.3300336e-05,1
1.0161544e-05,1.1379085e-06,-1.3446083e-08,-6.910639e-07,2.4383166e-06,7.598784e-06,1.60253e-05,1.5907992e-06,1.5530838e-06,4.689553e-06,-1.8972326e-06,-1.24601065e-05,1
-4.1325816e-07,-2.3868472e-06,-2.1955548e-06,-1.8660394e-06,1.9346273e-06,4.9133396e-06,1.2836065e-05,4.611757e-06,3.6343515e-06,5.529328e-06,-5.544322e-07,-8.598591e-06,1
-1.1491607e-05,-4.7366593e-06,-4.713362e-06,-2.8731658e-06,-1.9260453e-06,1.892195e-06,6.9612415e-06,6.122071e-06,3.6212837e-06,5.1941574e-06,7.883691e-07,-3.0585838e-06,1
-2.8780383e-05,-8.261414e-06,-5.7205266e-06,-2.3696473e-06,-4.7796225e-06,5.495437e-07,5.8286867e-07,1.0485823e-05,3.5670857e-06,3.0126432e-06,9.562244e-07,2.8171205e-06,1
-5.1608182e-05,-1.0946925e-05,-4.0421032e-06,-2.3696775e-06,-5.6190106e-06,-1.1288045e-06,-5.124105e-06,1.6528063e-05,5.3126855e-06,6.6327846e-07,-8.901113e-07,7.0143337e-06,1
-7.393243e-05,-1.2625339e-05,-2.0279808e-06,-3.712503e-06,-6.6262483e-06,-5.157044e-06,-1.0831083e-05,1.8877623e-05,6.978022e-06,-4.0359773e-06,-3.0721442e-06,9.533052e-06,1
-0.00010078861,-1.6317943e-05,-2.1958995e-06,-4.7196295e-06,-7.633484e-06,-9.520982e-06,-1.5866663e-05,1.6023854e-05,4.9096925e-06,-9.238783e-06,-4.414933e-06,1.0708979e-05,1
-0.0001133776,-1.6989263e-05,-2.3638179e-06,-3.5447147e-06,-8.305023e-06,-1.1535028e-05,-1.6202464e-05,1.7534167e-05,3.8018845e-06,-9.406111e-06,-3.7435307e-06,9.199315e-06,1
-5.328788e-05,-1.882753e-06,2.8394393e-06,1.4793808e-07,-5.787427e-06,-8.849295e-06,-9.656447e-06,3.4990153e-05,6.30638e-06,-1.0131297e-06,-2.7364276e-06,4.836213e-06,1
7.6123586e-05,2.0609123e-05,1.0056887e-05,3.0013448e-06,-1.5913397e-06,-3.645826e-06,-3.1104337e-06,5.6978068e-05,8.770037e-06,1.0401136e-05,-2.5685724e-06,-3.0435892e-08,1
0.00016105501,2.7994567e-05,1.1063913e-05,4.3441096e-06,4.2270855e-07,-2.1350388e-06,-1.0963473e-06,5.764913e-05,7.4944105e-06,1.5101432e-05,-5.254153e-06,-3.218593e-06,1
0.0001352059,1.7252294e-05,9.049652e-06,2.3298883e-06,8.686751e-08,-2.4705926e-06,-5.929068e-07,2.911443e-05,4.795492e-06,1.3759151e-05,-6.093394e-06,-5.7353536e-06,1
5.6652167e-05,5.1672278e-06,7.2032412e-06,-2.36992e-06,-2.489738e-07,-7.919559e-07,-1.767957e-06,-1.435886e-05,1.8880323e-06,1.0066981e-05,-3.7435002e-06,-6.070075e-06,1
4.282898e-06,1.474623e-06,6.3639254e-06,-5.055539e-06,-2.491174e-07,-2.882632e-07,-4.6215027e-06,-6.018204e-05,9.4813373e-07,7.3819056e-06,-1.7293011e-06,-3.7192085e-06,1
-5.7883594e-06,3.1531943e-06,5.0210615e-06,-4.7198714e-06,-1.5920563e-06,-1.2026928e-07,-5.9644053e-06,-0.00010046619,5.99017e-07,6.7110195e-06,-2.064995e-06,-1.5361925e-06,1
-4.1748834e-07,3.8246685e-06,4.181745e-06,-3.0414096e-06,-2.2635963e-06,-1.2012413e-07,-5.4609677e-06,-0.00012749026,8.8075177e-07,7.215076e-06,-1.393591e-06,-1.7030659e-06,1
1.5963986e-06,1.4748576e-06,3.5102782e-06,-1.0272487e-06,-2.0958917e-06,-9.592247e-07,-4.7896797e-06,-0.00012564425,1.9550735e-06,6.3763373e-06,-3.8649102e-07,-2.709186e-06,1
2.532995e-07,-5.3925413e-07,3.342359e-06,-2.370071e-06,-1.9281872e-06,-1.1269282e-06,-7.139681e-06,-9.2410446e-05,2.2772663e-06,5.0340495e-06,-1.393579e-06,-3.2117593e-06,1
-4.1840093e-07,-8.748749e-07,2.3351931e-06,-4.048594e-06,-1.2569352e-06,-4.5538545e-07,-9.153983e-06,-4.188816e-05,2.8947586e-06,4.6988557e-06,-3.072065e-06,-5.2249757e-06,1
2.2668823e-06,-5.390977e-07,1.8315751e-06,-2.5379811e-06,-4.178333e-07,-1.195415e-07,-4.790014e-06,2.759395e-06,1.2835225e-06,4.027962e-06,-3.0720591e-06,-6.398947e-06,1
4.4486173e-06,-1.0425684e-06,3.1742984e-06,-1.195218e-06,-2.501297e-07,1.2233987e-06,9.1674525e-07,2.189387e-05,1.2699286e-06,2.3499715e-06,-2.5685063e-06,-6.3979737e-06,1
2.6019704e-06,-2.3852833e-06,3.6777756e-06,-6.9169914e-07,-1.7609193e-06,1.727092e-06,1.5880316e-06,1.9375788e-05,1.8874792e-06,3.3628098e-07,-3.0720475e-06,-1.4453764e-05,1
5.8747395e-07,-3.895848e-06,4.349102e-06,-6.9172916e-07,-2.2646122e-06,7.201446e-07,-1.7690676e-06,1.4339969e-05,1.0842321e-07,-1.5095619e-06,-4.4148364e-06,-3.3251905e-05,1
5.871683e-07,-5.7421116e-06,4.3490313e-06,-1.6988552e-06,-7.541144e-07,-2.8680458e-07,-5.9423957e-07,1.803231e-05,-2.7586952e-06,-2.6840087e-06,-3.2398848e-06,-4.8525217e-05,1
5.868625e-07,-4.3992395e-06,4.013262e-06,-1.0274891e-06,2.602723e-06,1.3918344e-06,6.958861e-06,2.5753032e-05,-4.323125e-06,-4.697704e-06,-2.400634e-06,-5.238478e-05,1
9.2225537e-07,1.3276767e-07,3.3417941e-06,3.152749e-07,5.4560132e-06,4.2454194e-06,1.266562e-05,2.9109673e-05,-3.416564e-06,-8.054193e-06,-1.7292302e-06,-4.9530372e-05,1
1.4254971e-06,2.818435e-06,2.6703262e-06,8.187939e-07,5.1201673e-06,4.077716e-06,1.1490555e-05,2.9780726e-05,-1.7518411e-06,-1.1410685e-05,-1.0578285e-06,-4.482962e-05,1
2.2644365e-06,1.4757181e-06,1.1596119e-06,1.154462e-06,2.7701324e-06,2.9029206e-06,9.644097e-06,2.9444682e-05,8.800196e-07,-1.2920837e-05,-7.2212475e-07,-4.1303818e-05,1
1.5927327e-06,-1.8811886e-06,6.5599295e-07,1.4901311e-06,3.7770799e-06,4.2458623e-06,1.0315376e-05,2.3066064e-05,9.4736373e-07,-1.5438083e-05,2.8497794e-07,-3.928866e-05,1
-9.485624e-06,-4.2309994e-06,4.880724e-07,1.1544022e-06,4.784027e-06,5.0852555e-06,1.3504392e-05,9.302079e-06,-4.0928612e-07,-1.9130279e-05,-5.542644e-07,-3.525931e-05,1
-5.1448238e-05,-7.2522075e-06,-1.6940392e-06,6.5082435e-07,4.112482e-06,5.5889504e-06,1.7196955e-05,-8.993834e-06,-1.9735985e-06,-2.2151078e-05,-1.7292017e-06,-2.5858784e-05,1
-0.000118756085,-1.2287606e-05,-2.3655075e-06,-5.241495e-07,1.762444e-06,5.253401e-06,2.0050273e-05,-2.5779107e-05,-3.4168681e-06,-2.248629e-05,1.1714492e-07,-1.5115465e-05,1
-0.00016810409,-1.7658704e-05,-4.3797695e-06,-1.6991244e-06,1.0908994e-06,4.0786044e-06,2.1728642e-05,-3.2157724e-05,-4.437907e-06,-2.0471614e-05,1.6277926e-06,-6.8898858e-06,1
-0.00016709729,-2.0008514e-05,-9.079621e-06,-1.6991542e-06,-1.0912893e-06,1.8967133e-06,2.424626e-05,-2.9472487e-05,-4.1558174e-06,-1.8456942e-05,1.2921001e-06,3.3498834e-06,1
-0.00010818251,-1.7658547e-05,-1.1093884e-05,-2.202731e-06,-4.951972e-06,2.1837033e-07,2.9785158e-05,-2.3430264e-05,-2.242074e-06,-1.5938722e-05,-5.068832e-08,1.845728e-05,1
1.5018518e-05,-5.573324e-06,-6.394176e-06,-1.6992137e-06,-5.2878195e-06,1.2256155e-06,4.019169e-05,-1.0170525e-05,-1.0811607e-06,-9.392121e-06,9.564133e-07,4.195714e-05,1
0.0001721251,1.8932744e-05,2.3339123e-06,3.0005347e-06,-2.266682e-06,1.8971609e-06,4.9255425e-05,4.5998577e-06,3.7593261e-07,2.357805e-06,2.8027598e-06,7.821354e-05,1
0.00023859309,3.269646e-05,7.0336187e-06,7.0288875e-06,-9.240368e-07,2.5687086e-06,4.421982e-05,5.438752e-06,9.469111e-07,1.1422141e-05,1.4599713e-06,0.00011816263,1
0.00016054288,2.2289885e-05,3.676562e-06,7.700255e-06,-2.2669817e-06,2.2331583e-06,2.2399294e-05,-2.4505146e-06,1.268491e-06,1.4779602e-05,-1.0577613e-06,0.00013713054,1
4.5397996e-05,4.162244e-06,-2.533932e-06,5.0146373e-06,-2.267132e-06,1.2262143e-06,-4.960255e-06,-5.6400027e-06,2.0790446e-07,1.847276e-05,-8.8990686e-07,0.00012471067,1
-8.64977e-06,-5.2372347e-06,-4.7160443e-06,2.6647178e-06,-1.4280366e-06,-6.1997645e-07,-2.6445085e-05,-2.61907e-06,-1.4031274e-06,2.350871e-05,2.8504456e-07,9.3323826e-05,1
-6.8037393e-06,-4.2300608e-06,-3.3733227e-06,2.3289901e-06,8.2455614e-08,-2.298319e-06,-4.910486e-05,-4.373846e-07,-2.592279e-06,2.6866166e-05,1.292144e-06,6.3447624e-05,1
4.2740016e-06,-2.016004e-07,-1.0235061e-06,4.3431514e-06,1.7607965e-06,-2.9695664e-06,-7.864645e-05,-9.4128666e-07,-2.9814078e-06,2.9216526e-05,2.1313963e-06,4.2635274e-05,1
5.6164845e-06,2.8197649e-06,1.3263107e-06,5.014519e-06,2.0963444e-06,-2.8015647e-06,-9.207452e-05,-9.416422e-07,-6.0481945e-08,3.1231186e-05,5.488386e-06,2.5851314e-05,1
2.2591898e-06,3.8269372e-06,2.669032e-06,4.8466404e-06,-2.5369624e-07,-2.1300177e-06,-7.512188e-05,4.0079516e-07,3.1143593e-06,2.6867572e-05,8.341828e-06,1.510992e-05,1
2.4468721e-07,2.1485223e-06,2.50111e-06,4.846611e-06,-5.8954606e-07,-1.4584705e-06,-4.1720014e-05,1.0718355e-06,1.8860434e-06,1.4111495e-05,7.3347383e-06,1.2425293e-05,1
1.0836233e-06,-1.2083835e-06,3.189969e-07,5.0144304e-06,8.1697905e-08,-3.136811e-06,-1.38571695e-05,3.2535183e-06,-1.2355747e-06,4.7124026e-06,5.4884017e-06,9.740663e-06,1
2.2582572e-06,-2.2154002e-06,-1.3595684e-06,5.517948e-06,2.4939462e-07,-4.4794524e-06,-5.9721197e-07,5.938747e-06,-3.7676941e-06,1.3558804e-06,3.1385168e-06,5.209691e-06,1
1.9222468e-06,-2.215322e-06,-1.684762e-08,6.0214666e-06,1.0884891e-06,-2.6329587e-06,1.4168484e-06,7.2811836e-06,-3.4853076e-06,1.3547831e-08,2.1314281e-06,1.0144188e-06,1
2.2576344e-06,-1.8795458e-06,1.1580239e-06,5.35004e-06,2.4311303e-06,-9.543147e-07,1.584564e-06,5.2666333e-06,-7.321736e-07,1.4007751e-08,3.6420763e-06,-2.3416094e-06,1
2.5930206e-06,-3.5579596e-06,-1.848432e-07,3.6715173e-06,2.7666763e-06,7.2433045e-07,2.9272219e-06,3.2520823e-06,2.6045257e-07,1.0215616e-06,5.3205736e-06,-3.012049e-06,1
1.5856135e-06,-4.2292786e-06,-3.3740519e-06,2.328695e-06,1.927275e-06,1.2280298e-06,4.437729e-06,3.9231186e-06,-2.1426881e-06,2.532662e-06,6.8312215e-06,-3.3467923e-06,1
5.782053e-07,-2.8864063e-06,-5.052618e-06,1.9929666e-06,-8.7068685e-08,5.5678436e-07,4.9411447e-06,9.293933e-06,-4.4250028e-06,2.7009667e-06,6.327679e-06,-4.0172336e-06,1
5.778928e-07,-2.0074e-07,-3.20635e-06,3.0000322e-06,-5.907695e-07,-4.5015685e-07,6.6194984e-06,1.3825502e-05,-4.775258e-06,1.1907775e-06,2.970699e-06,-5.86262e-06,1
2.4188114e-07,2.3170762e-06,-6.8868485e-07,5.014195e-06,8.047245e-08,-1.7927989e-06,8.969252e-06,1.4664384e-05,-3.3178067e-06,-8.229607e-07,2.635006e-06,-5.693817e-06,1
-2.2761687e-06,2.9885523e-06,-1.8521072e-07,4.6784667e-06,-2.5537986e-07,-6.1769975e-07,1.1319002e-05,1.3992625e-05,-1.739561e-06,-2.6688508e-06,3.6421072e-06,-1.8323308e-06,1
-3.2835787e-06,3.4921777e-06,-3.531338e-07,2.6642463e-06,8.016357e-08,8.930966e-07,1.14867125e-05,1.1306672e-05,2.106329e-06,-4.3468935e-06,3.3064132e-06,3.8754974e-06,1
-1.2697012e-06,4.83505e-06,-6.889062e-07,1.6571219e-06,7.5140673e-07,5.5755015e-07,8.2974375e-06,7.949323e-06,3.5638395e-06,-4.6821438e-06,2.2993231e-06,6.897735e-06,1
-4.3076773e-07,5.506524e-06,-2.5353218e-06,1.9927907e-06,1.0869497e-06,1.3969509e-06,4.2689167e-06,8.620355e-06,1.2815818e-06,-4.0103005e-06,1.7957813e-06,7.737934e-06,1
-1.2703284e-06,5.842301e-06,-2.3675466e-06,8.1781735e-07,1.5903414e-06,4.5862407e-06,1.2474891e-06,1.0969879e-05,-2.5936824e-06,-2.163513e-06,1.2922371e-06,8.410281e-06,1
-2.7812855e-06,4.8352845e-06,-1.192676e-06,-3.5715686e-07,7.509408e-07,4.922093e-06,2.254446e-06,1.26480045e-05,-3.1503012e-06,-1.6595216e-06,9.565441e-07,1.0425423e-05,1
-5.467187e-06,3.8282665e-06,-1.696298e-06,-2.1488061e-08,-1.2634071e-06,1.7331113e-06,5.44344e-06,9.290653e-06,-1.5720002e-06,-3.3375716e-06,1.627945e-06,1.5126152e-05,1
-1.0502979e-05,1.4784557e-06,-3.3748645e-06,-6.9291326e-07,-3.109905e-06,-1.1201702e-06,5.9468443e-06,2.5763163e-06,1.2666198e-06,-4.008528e-06,1.6279499e-06,1.982688e-05,1
-1.2517484e-05,-1.999581e-07,-4.046336e-06,-1.8678874e-06,-2.2708143e-06,-1.12920446e-07,3.932509e-06,-7.810366e-07,2.5564016e-06,-3.5045405e-06,1.6279548e-06,2.3184815e-05,1
-9.496513e-06,-3.6772892e-07,-3.542863e-06,-2.0357656e-06,7.503161e-07,3.4120685e-06,1.5824783e-06,1.9041823e-06,1.2812952e-06,-4.511198e-06,2.8516772e-07,2.2514367e-05,1
-6.4755427e-06,-1.0390487e-06,-2.535842e-06,-5.251517e-07,1.9251022e-06,4.7550175e-06,-9.616041e-08,5.092949e-06,9.3069065e-07,-4.175063e-06,6.2087054e-07,1.4794248e-05,1
-5.972308e-06,-1.3746686e-06,-2.5359166e-06,-5.251808e-07,2.7641931e-06,3.2445298e-06,-7.677028e-07,3.581936e-06,1.8848344e-06,-1.9925878e-06,2.2993675e-06,7.0741307e-06,1
-7.1475692e-06,-2.8852335e-06,-3.0395388e-06,-1.7001548e-06,3.603281e-06,1.2304944e-06,7.1397125e-08,5.602779e-07,1.6168513e-06,-1.3207571e-06,4.3135633e-06,4.053791e-06,1
-7.6514325e-06,-4.899346e-06,-2.2003676e-06,-1.7001839e-06,3.4352743e-06,5.5705026e-08,1.9175934e-06,-2.7933962e-07,1.7697076e-06,-2.8309682e-06,4.313568e-06,-3.093439e-07,1
-4.630463e-06,-3.892172e-06,1.494467e-07,-1.3645149e-06,3.4351165e-06,-1.7904811e-06,3.0923889e-06,-1.2868064e-06,2.3882135e-06,-4.1733315e-06,2.9707776e-06,-1.105075e-05,1
-6.023961e-07,-1.542206e-06,8.207686e-07,-1.3645439e-06,4.1063554e-06,-2.797419e-06,4.6028827e-06,-1.287179e-06,3.2952025e-06,-3.501505e-06,1.9636884e-06,-2.313495e-05,1
-9.9165426e-08,-1.9933283e-07,-1.0256482e-06,-2.035969e-06,4.106197e-06,-2.2937159e-06,3.2599407e-06,5.5878894e-07,2.7765743e-06,-2.661831e-06,2.299391e-06,-3.4547753e-05,1
-3.624316e-06,8.0784133e-07,-1.1935726e-06,-1.3646019e-06,2.4275466e-06,-2.1257104e-06,1.0777502e-06,4.5867973e-06,7.09553e-07,-1.1507619e-06,3.6421898e-06,-4.0085833e-05,1
-7.820863e-06,1.8150134e-06,-1.870325e-08,-3.575348e-07,1.0845939e-06,-3.8040457e-06,7.0505905e-08,7.272011e-06,-5.6546986e-07,3.6030602e-07,2.8029474e-06,-3.605651e-05,1
-8.996125e-06,1.1436956e-06,-1.8778636e-08,-5.254127e-07,-2.5835917e-07,-3.468191e-06,-2.6534408e-07,7.943032e-06,7.6215616e-07,6.964277e-07,1.628007e-06,-2.7495258e-05,1
-7.150101e-06,-8.704173e-07,4.8469366e-07,-2.0360847e-06,-1.2656144e-06,-2.796636e-06,-9.7645774e-08,7.942656e-06,1.0450839e-06,1.9330187e-07,2.2994097e-06,-2.1619593e-05,1
-6.81472e-06,-5.346402e-07,2.3309597e-06,-3.5467574e-06,-4.2652695e-07,-4.1392727e-06,9.0929586e-07,6.2637882e-06,2.119978e-06,-1.3169208e-06,4.481454e-06,-1.9940158e-05,1
-8.157832e-06,-5.3456205e-07,3.1701302e-06,-2.2039912e-06,7.482583e-07,-5.146212e-06,2.7554856e-06,4.584919e-06,3.6153663e-06,-3.3306928e-06,4.3136097e-06,-1.7757178e-05,1
-8.158149e-06,-3.6663496e-07,2.3308085e-06,-2.198114e-08,-4.2684675e-07,-5.9853014e-06,5.273072e-06,6.0951847e-06,2.0520138e-06,-4.50522e-06,2.9708194e-06,-1.6749143e-05,1
-6.8156737e-06,1.4797841e-06,1.8271847e-06,-1.029106e-06,-1.098404e-06,-6.3208417e-06,6.2800113e-06,8.4446965e-06,-9.0144727e-07,-6.6868447e-06,1.6280298e-06,-1.540541e-05,1
-3.962554e-06,2.8226573e-06,2.3306566e-06,-2.0362288e-06,-5.950165e-07,-3.8029439e-06,4.937064e-06,8.444318e-06,-1.2524878e-06,-8.197072e-06,-5.0457697e-08,-1.339028e-05,1
-2.4522283e-06,2.1513363e-06,1.8270329e-06,-1.8684085e-06,4.1191674e-07,-2.1242938e-06,4.0976593e-06,6.5975964e-06,-1.3019199e-07,-7.021715e-06,-1.7289442e-06,-1.2382247e-05,1
-3.123946e-06,3.050734e-07,-6.9078186e-07,-1.8684372e-06,1.4188518e-06,-2.6276823e-06,6.9509406e-06,4.583025e-06,9.447559e-07,-4.335716e-06,-1.8967908e-06,-1.4059802e-05,1
-4.1313588e-06,-1.7090396e-06,-2.0336518e-06,-1.364919e-06,2.7614856e-06,-1.6204299e-06,1.0307768e-05,1.7292077e-06,1.9364227e-06,-3.3282106e-06,-1.7289354e-06,-1.6073056e-05,1
-5.1387738e-06,-2.2125084e-06,-1.0266327e-06,3.135444e-07,4.4398153e-06,-4.453251e-07,1.0643308e-05,-1.1246108e-06,2.0534162e-07,-3.327802e-06,-8.89686e-07,-1.5568572e-05,1
-5.306942e-06,-3.7230734e-06,-6.9101065e-07,1.4566673e-07,6.4538453e-06,-7.808652e-07,7.957561e-06,-1.6285402e-06,-3.0837623e-06,-1.4810535e-06,-3.8613464e-07,-1.3385597e-05,1
-5.4751104e-06,-6.5764325e-06,-1.0267855e-06,-8.6145593e-07,6.2858344e-06,-1.2842551e-06,5.6075146e-06,3.8526792e-07,-4.777771e-06,1.3727893e-06,2.852687e-07,-1.2713265e-05,1
-5.307581e-06,-8.590546e-06,8.194796e-07,1.4560948e-07,4.9428772e-06,2.265482e-07,6.9501475e-06,8.8843296e-07,-2.9839568e-06,1.7088919e-06,-2.1827597e-07,-1.2376632e-05,1
-5.6435993e-06,-7.583372e-06,2.6657447e-06,2.3276218e-06,5.7819616e-06,2.5765976e-06,8.964179e-06,-1.19046014e-07,-3.0838987e-06,-1.3119916e-06,-2.5681607e-06,-1.1368604e-05,1
-5.140372e-06,-3.5549122e-06,3.0013664e-06,3.3346882e-06,5.781799e-06,4.9266464e-06,1.01389605e-05,7.198159e-07,-5.1136935e-06,-3.3257816e-06,-3.9109514e-06,-9.521329e-06,1
-3.4622003e-06,-1.2049452e-06,2.3298926e-06,1.9918657e-06,3.096048e-06,4.926806e-06,1.0642346e-05,1.2229782e-06,-3.823365e-06,-3.8289295e-06,-5.0858903e-06,-9.016849e-06,1
-1.7840279e-06,-1.2048671e-06,3.1562496e-07,-5.2590076e-07,4.1029588e-07,3.9198703e-06,9.2993905e-06,-7.915979e-07,-1.7412411e-06,-5.003476e-06,-3.7430939e-06,-1.3212148e-05,1
-7.7725247e-07,-8.690901e-07,-2.3700397e-06,-1.7008742e-06,1.0815305e-06,3.2486344e-06,6.9493367e-06,-1.1276826e-06,-1.421232e-06,-5.6744766e-06,-1.0575008e-06,-2.5799909e-05,1
-4.4187536e-07,-1.9761512e-07,-4.0486093e-06,-1.0295067e-06,4.606201e-06,4.759438e-06,6.2777754e-06,1.5575189e-06,-8.022409e-07,-4.6669857e-06,1.1744844e-07,-3.704488e-05,1
1.2362966e-06,1.1452569e-06,-2.7058925e-06,-8.616842e-07,7.123775e-06,5.2631453e-06,3.5920223e-06,2.8999245e-06,-2.3073181e-07,-1.1417579e-06,-2.4002863e-06,-4.0065235e-05,1
4.0894115e-06,9.774859e-07,3.153166e-07,-1.3652616e-06,5.445119e-06,4.088361e-06,-1.1079213e-06,1.8924417e-06,-4.1435766e-07,2.7191668e-06,-4.414473e-06,-3.637162e-05,1
5.431884e-06,4.7401485e-07,1.490184e-06,1.4535297e-07,3.5986125e-06,2.0743312e-06,-4.1293747e-06,5.4925874e-07,-2.4808946e-06,3.8945022e-06,-2.5681272e-06,-3.083167e-05,1
4.592316e-06,9.776419e-07,6.5086044e-07,1.4881196e-06,2.7592027e-06,5.6384937e-07,-4.4652397e-06,-1.2252661e-07,-6.1055885e-06,3.3913439e-06,2.853149e-07,-2.5291716e-05,1
4.927693e-06,1.1455688e-06,-2.061404e-08,9.845432e-07,2.4233389e-06,2.2831271e-07,-4.801105e-06,4.4932616e-08,-6.6250013e-06,2.7203346e-06,7.88866e-07,-2.3612298e-05,1
5.4309185e-06,-1.9714723e-07,6.507054e-07,-6.939771e-07,1.9196248e-06,1.0677212e-06,-6.815466e-06,1.5551857e-06,-5.8380383e-06,2.2171732e-06,-8.89623e-07,-2.2604274e-05,1
2.912857e-06,-1.0363162e-06,1.489874e-06,-3.0438964e-06,2.4230085e-06,1.57143e-06,-1.235466e-05,1.8904927e-06,-3.2522855e-06,4.0638997e-06,-1.393166e-06,-1.7064323e-05,1
5.9097562e-08,-7.0053835e-07,1.6576455e-06,-4.5545676e-06,2.422843e-06,3.9664684e-07,-1.9908044e-05,1.5544032e-06,-2.0932914e-06,8.092665e-06,-1.393162e-06,-1.0349429e-05,1
-1.1161701e-06,-8.683104e-07,1.15402e-06,-5.393841e-06,1.0798831e-06,-4.424361e-07,-2.3600898e-05,-1.802974e-06,-2.8169109e-06,1.04429355e-05,-1.3931581e-06,-6.320123e-06,1
-1.9557378e-06,-1.9683546e-07,1.3217913e-06,-6.568815e-06,-2.63077e-07,7.326712e-07,-1.873344e-05,-6.838844e-06,-3.7559646e-06,9.268371e-06,-2.2324011e-06,-3.633611e-06,1
-4.473799e-06,-1.9675754e-07,1.6574118e-06,-6.568843e-06,-1.6060383e-06,1.5720786e-06,-1.0005452e-05,-1.0196222e-05,-4.1077005e-06,6.0796146e-06,-2.0645482e-06,1.5706391e-06,1
-6.488315e-06,-1.9667964e-07,-3.5685719e-07,-5.3939257e-06,-1.6062048e-06,2.9150362e-06,-2.78811e-06,-1.0196616e-05,-1.8099737e-06,2.0516104e-06,-3.860523e-07,9.1247775e-06,1
-6.9921857e-06,9.783432e-07,-3.3782214e-06,-3.0440658e-06,-1.6063716e-06,4.593691e-06,2.2471959e-06,-5.4972325e-06,2.4543256e-06,-1.3005403e-07,-3.8604844e-07,1.6175367e-05,1
-4.1390713e-06,2.1533642e-06,-3.7139982e-06,-2.280692e-08,-1.2708396e-06,5.26525e-06,5.685278e-07,3.7709563e-07,3.6131453e-06,1.2131143e-06,-1.5609876e-06,2.9604229e-05,1
-1.11811e-06,2.153442e-06,-2.8748304e-06,2.998451e-06,-2.6391086e-07,3.5869211e-06,-2.9564808e-06,2.55874e-06,1.882553e-06,4.570472e-06,-7.217388e-07,5.0754155e-05,1
-1.11338075e-07,1.985671e-06,-2.0356624e-06,4.676916e-06,1.4144136e-06,9.014976e-07,-6.067662e-07,1.7190977e-06,1.7827981e-06,8.599225e-06,1.292456e-06,6.0490325e-05,1
2.2403573e-07,1.8178998e-06,-1.8678919e-06,1.9912998e-06,2.92489e-06,1.9087552e-06,4.260685e-06,-7.99038e-07,3.1093805e-06,1.178873e-05,2.1317069e-06,4.1188585e-05,1
2.2371134e-07,1.1465817e-06,-2.2036688e-06,4.8062776e-07,3.092571e-06,3.251714e-06,5.099757e-06,-2.1422295e-06,3.5608896e-06,1.2964043e-05,2.9709556e-06,7.451808e-06,1
-6.1585826e-07,6.4311047e-07,-3.210843e-06,9.841488e-07,1.7496078e-06,2.2447807e-06,3.5889345e-06,-3.653271e-06,1.9505176e-06,1.3803656e-05,3.6423573e-06,-1.9403153e-05,1
-1.45543e-06,8.1103934e-07,-2.3716755e-06,-8.6222025e-07,-1.6075456e-06,9.0215286e-07,5.0994013e-06,-6.5071067e-06,9.271238e-07,1.4811118e-05,3.97806e-06,-3.0144587e-05,1
-7.84357e-07,1.1468152e-06,3.138335e-07,-3.883535e-06,-3.6219044e-06,-4.404769e-07,8.288354e-06,-8.521697e-06,8.751469e-07,1.5315029e-05,1.7960236e-06,-1.1848104e-05,1
2.068754e-06,1.818289e-06,1.6565485e-06,-5.058508e-06,-4.2934694e-06,5.667815e-07,1.03023685e-05,-7.1793033e-06,1.4468416e-06,1.3972597e-05,-3.860147e-07,4.1025323e-05,1
5.2575647e-06,2.9933128e-06,1.1529218e-06,-4.554989e-06,-5.6364333e-06,1.2383442e-06,8.623697e-06,-3.65487e-06,5.912101e-07,1.145522e-05,-1.560954e-06,9.2891656e-05,1
7.942826e-06,3.4969376e-06,1.4574734e-07,-2.876524e-06,-6.811548e-06,2.3141297e-07,7.345991e-07,-9.696829e-07,-1.8105952e-06,1.0784182e-05,-3.0715935e-06,9.692095e-05,1
8.949596e-06,2.8256193e-06,-8.614272e-07,-3.5881288e-07,-5.636772e-06,-3.461105e-06,-7.1544964e-06,5.405578e-07,-1.7424226e-06,9.777445e-06,-3.0715898e-06,6.284846e-05,1
8.613572e-06,1.9864492e-06,3.1343816e-07,9.839532e-07,-3.454902e-06,-6.146529e-06,-9.00102e-06,5.4015544e-07,2.5529633e-07,5.9172685e-06,-2.2323413e-06,2.7265341e-05,1
4.584864e-06,3.0803488e-07,2.3275497e-06,6.4822643e-07,-1.6087313e-06,-5.4749657e-06,-5.1406687e-06,5.397524e-07,1.210539e-06,3.0641863e-06,-1.5609398e-06,6.956497e-06,1
-4.5093898e-07,-1.5382294e-06,3.3345657e-06,8.160486e-07,-1.2732025e-06,-3.460609e-06,-1.1124713e-06,-1.3204732e-07,6.0734055e-07,1.3860473e-06,-2.0644852e-06,7.46988e-07,1
-1.7940595e-06,-2.3773966e-06,2.9987877e-06,1.9909648e-06,-3.119715e-06,-1.4462533e-06,-7.7695756e-07,2.217437e-06,8.723354e-08,1.0507007e-06,-3.0715757e-06,3.0977874e-06,1
-1.6265371e-06,-4.223661e-06,1.1523666e-06,1.990937e-06,-4.294829e-06,-6.068394e-07,-1.7842366e-06,4.2312245e-06,3.5441776e-08,8.83202e-07,-1.7287783e-06,5.7842867e-06,1
-1.1233169e-06,-5.06283e-06,1.1522869e-06,1.3195133e-06,-3.7914529e-06,-1.1102213e-06,-5.141407e-06,5.070065e-06,1.4464606e-06,2.1215388e-07,-3.8598293e-07,4.94595e-06,1
1.226247e-06,-4.5592046e-06,3.5020967e-06,1.6551837e-06,-3.959473e-06,-1.949302e-06,-7.827182e-06,5.069659e-06,2.2690613e-06,3.8035054e-07,1.1756949e-07,7.464599e-06,1
4.918603e-06,-3.5520309e-06,4.0055647e-06,3.333648e-06,-3.6239467e-06,-2.1169847e-06,-8.163068e-06,5.0692524e-06,3.2244266e-06,1.2199425e-06,-2.1812612e-07,1.2500985e-05,1
4.5825764e-06,-3.5519531e-06,1.8234444e-06,4.6764144e-06,-1.9456263e-06,-3.79531e-06,-6.4847627e-06,3.7260513e-06,3.2926769e-06,1.0524376e-06,-2.1812275e-07,1.6865972e-05,1
-1.2924751e-06,-4.2232723e-06,-3.5867563e-07,4.3406885e-06,-2.6171942e-06,-4.1308413e-06,-2.79227e-06,3.5577948e-06,3.6116426e-06,7.1708206e-07,7.889766e-07,2.2238057e-05,1
-9.0138665e-06,-2.8804006e-06,-3.587557e-07,3.333565e-06,-3.2887644e-06,-2.7878805e-06,2.914416e-06,3.5573864e-06,2.0493321e-06,3.81725e-07,1.963925e-06,3.2813463e-05,1
-1.673526e-05,-5.304331e-07,1.4471198e-07,2.9978385e-06,-1.6104448e-06,-1.9484683e-06,5.5998153e-06,3.0534295e-06,-4.0013043e-07,-6.250307e-07,3.3067213e-06,4.8256497e-05,1
-1.7910535e-05,-5.3035546e-07,1.4463177e-07,4.172756e-06,7.3927356e-07,-3.123246e-06,2.2426395e-06,1.206678e-06,-1.7597446e-06,-2.9745815e-06,4.1459716e-06,5.816051e-05,1
-1.2036138e-05,-2.54447e-06,-3.5899632e-07,4.1727285e-06,1.0747987e-06,-3.7944744e-06,6.040746e-08,-6.4007355e-07,-1.4756514e-06,-5.324134e-06,1.7960857e-06,5.5140124e-05,1
-1.0190126e-05,-2.8800903e-06,-1.1983229e-06,3.165606e-06,1.4103236e-06,-2.6193618e-06,3.5850496e-06,2.5486513e-06,2.71142e-07,-7.673688e-06,2.8544594e-07,3.6677615e-05,1
-1.8415067e-05,-2.3764646e-06,-2.2054987e-06,1.8227845e-06,1.5779992e-06,-1.444251e-06,6.941842e-06,7.0801702e-06,2.4362769e-06,-8.680449e-06,9.568452e-07,1.5025967e-05,1
-2.7647102e-05,-1.033594e-06,-1.366333e-06,9.835111e-07,7.385807e-07,-7.7268504e-07,7.445196e-06,9.765346e-06,5.0703206e-06,-9.015816e-06,2.2996423e-06,-5.831115e-07,1
-3.1004416e-05,1.8199205e-06,4.799279e-07,2.3262776e-06,-1.1079351e-06,-4.3681786e-07,4.591564e-06,8.589989e-06,7.320688e-06,-9.183335e-06,7.8900246e-07,-1.11567115e-05,1
-3.5536672e-05,4.772041e-07,4.7984724e-07,1.8227022e-06,-2.618752e-06,-1.1080465e-06,2.2729029e-07,-1.1456802e-06,6.967997e-06,-1.0022252e-05,-1.7287324e-06,-1.568774e-05,1
-3.234787e-05,-4.2224965e-06,-6.951783e-07,-1.8700082e-06,-3.6260224e-06,-7.7218e-07,-1.787094e-06,-1.2559842e-05,5.90942e-06,-1.2036114e-05,-1.8965803e-06,-1.551899e-05,1
7.0963724e-06,-2.8796248e-06,-1.7023546e-06,-4.7234735e-06,-2.954799e-06,7.386327e-07,5.6259705e-07,-1.0881764e-05,3.4600334e-06,-1.0357296e-05,-5.0235247e-08,-1.6357337e-05,1
7.6585624e-05,6.5200106e-06,1.4390619e-07,-2.54146e-06,5.698605e-07,2.9208416e-06,3.5836874e-06,1.2029666e-06,4.2822007e-06,-5.1536445e-06,2.8546782e-07,-2.021697e-05,1
0.00011586202,1.1891263e-05,1.3187698e-06,9.833468e-07,4.0945188e-06,2.0817627e-06,2.240697e-06,8.923616e-06,5.2378764e-06,-9.570905e-07,-3.8592816e-07,-2.306951e-05,1
9.387344e-05,4.8416728e-06,4.794425e-07,3.1192158e-07,3.7586453e-06,-1.6107512e-06,-1.4521839e-06,6.4054616e-06,3.6277615e-06,1.3931206e-06,-2.4001151e-06,-2.2565064e-05,1
4.4189735e-05,-3.5507119e-06,3.115121e-07,-2.3736916e-06,2.919224e-06,-3.6247718e-06,-1.9559297e-06,-1.4107437e-07,7.5715906e-07,2.4005362e-06,-3.575056e-06,-1.9039335e-05,1
1.3640843e-05,-4.3898804e-06,-3.5996615e-07,-3.212967e-06,2.7511994e-06,-2.1139592e-06,-7.8118603e-07,-2.491381e-06,8.736511e-07,2.1881492e-07,-3.4072043e-06,-1.8367042e-05,1
9.947828e-06,-8.6496885e-07,-8.635951e-07,-2.709446e-06,2.5831737e-06,-7.709954e-07,-1.2849331e-06,3.6163823e-07,3.6276415e-06,-2.8441548e-07,-2.2322572e-06,-1.9876788e-05,1
1.2297387e-05,2.1563935e-06,-3.6012892e-07,-1.8702262e-06,1.4080525e-06,-7.708255e-07,-9.4943584e-07,2.8789584e-06,5.7924294e-06,7.229955e-07,-3.7428983e-06,-2.0547292e-05,1
8.268675e-06,1.317226e-06,-1.0316073e-06,-5.274594e-07,1.0721782e-06,-2.4491474e-06,2.2530674e-07,-4.78445e-07,4.7340395e-06,3.8761124e-07,-5.7570855e-06,-1.9707151e-05,1
3.065017e-06,-2.8789275e-06,-1.0316888e-06,-1.0310355e-06,1.4076996e-06,-3.2882242e-06,-4.4629235e-07,-2.9966025e-06,2.9561256e-06,-1.9619656e-06,-4.078591e-06,-1.9706258e-05,1
1.2183448e-06,-3.5502471e-06,-3.6037366e-07,-2.3738546e-06,4.0042696e-07,-1.7774107e-06,-7.821931e-07,-4.1719672e-06,9.2459567e-07,-2.633051e-06,-2.0643968e-06,-1.9537516e-05,1
1.7215602e-06,-1.5359798e-06,3.1094163e-07,-3.0452807e-06,7.3595e-07,-4.3444513e-07,2.246984e-07,-5.179483e-06,-4.694295e-07,-2.8285228e-07,-5.5375097e-07,-1.7858132e-05,1
2.2247766e-06,-1.9310744e-07,1.4858044e-06,-2.2060597e-06,4.0007276e-07,-9.3782234e-07,5.6645266e-08,-4.172809e-06,1.2775153e-06,1.2280988e-06,-1.0572952e-06,-1.6850146e-05,1
8.8165086e-07,-3.6087908e-07,2.9963658e-06,-8.632927e-07,-1.6142957e-06,5.729906e-07,-1.1185035e-06,-1.8233408e-06,1.26009e-06,7.2485767e-07,-1.8965394e-06,-1.80242e-05,1
-1.8042691e-06,-3.6080175e-07,2.6605853e-06,3.116233e-07,-2.1180203e-06,2.7552037e-06,-4.4731306e-07,-8.1666764e-07,-4.6957172e-07,3.8946433e-07,-3.0714798e-06,-1.8694707e-05,1
-4.1544904e-06,-8.642724e-07,1.4855585e-06,1.6543913e-06,-7.754032e-07,3.59462e-06,2.2387778e-07,-2.1598844e-06,-1.7438895e-06,8.933156e-07,-3.239326e-06,-1.6176082e-05,1
-5.4976167e-06,1.4289989e-07,2.3247226e-06,1.8222134e-06,2.3151273e-07,4.0983386e-06,-4.4772608e-07,-7.1957847e-06,-1.2578532e-06,5.4371288e-08,-1.0572843e-06,-1.231466e-05,1
-4.994402e-06,1.1500732e-06,4.3388313e-06,1.436935e-07,-2.722126e-07,2.923567e-06,7.270104e-07,-8.874701e-06,5.3738216e-07,-1.2881219e-06,2.8551338e-07,-9.796035e-06,1
-5.4982816e-06,1.1501505e-06,5.010146e-06,-5.277294e-07,-2.2865822e-06,2.75589e-06,2.7409942e-06,-2.4968547e-06,2.7018496e-07,-2.8072753e-07,2.8551602e-07,-5.2632186e-06,1
-5.1629163e-06,1.4313174e-07,4.3386667e-06,1.4363975e-07,-2.286761e-06,3.4274578e-06,3.9157294e-06,5.727333e-06,9.239839e-07,1.7337607e-06,-5.0181345e-08,2.7669256e-07,1
-3.8204553e-06,-2.4640007e-08,4.338584e-06,1.9899549e-06,-6.084469e-07,3.259781e-06,3.2441228e-06,7.908947e-06,2.2157344e-06,1.5662074e-06,1.4604642e-06,3.6345616e-06,1
-3.1493926e-06,-1.9241178e-07,4.002803e-06,4.6755163e-06,-2.7292813e-07,2.7564063e-06,2.5725165e-06,6.7335777e-06,2.4521098e-06,3.9155717e-07,1.6283158e-06,3.803296e-06,1
-1.97478e-06,-6.9588157e-07,1.8206805e-06,6.6896805e-06,-7.766546e-07,1.4137837e-06,4.0829477e-06,4.55111e-06,1.595179e-06,-2.293738e-06,1.1767637e-07,2.6292346e-06,1
-1.6394154e-06,-3.6010636e-07,2.1562962e-06,5.5147084e-06,-2.2874783e-06,5.7470936e-07,4.9219852e-06,2.3686418e-06,3.3554567e-08,-3.300542e-06,9.569249e-07,1.9587205e-06,1
-1.975447e-06,2.493408e-06,4.002555e-06,4.004039e-06,-4.973247e-06,1.5819782e-06,5.089622e-06,1.864667e-06,1.1092008e-06,-9.5036285e-07,2.6354194e-06,-1.2295322e-06,1
-9.686847e-07,4.843374e-06,4.8417187e-06,2.8290672e-06,-6.9876173e-06,2.4213982e-06,5.425107e-06,2.3677856e-06,4.616264e-06,2.248703e-07,2.803271e-06,-6.2641284e-06,1
2.2201164e-06,3.1649593e-06,2.9952942e-06,1.9897946e-06,-6.3163993e-06,2.9251194e-06,6.935535e-06,2.5352065e-06,4.733195e-06,-5.6495664e-06,2.2997262e-06,-8.948836e-06,1
5.7446164e-06,1.1508453e-06,1.484568e-06,2.661165e-06,-6.3165803e-06,3.7645375e-06,5.592528e-06,2.534777e-06,6.055397e-07,-1.874152e-05,1.6283308e-06,-9.955051e-06,1
6.247829e-06,2.1580165e-06,9.809371e-07,2.3254402e-06,-8.666652e-06,3.5968621e-06,8.92532e-07,3.2057437e-06,-2.4336048e-06,-3.149778e-05,4.5339016e-07,-9.114926e-06,1
6.7510427e-06,3.5008886e-06,-2.6241434e-08,1.1504686e-06,-8.331132e-06,2.2542406e-06,-2.4646686e-06,2.7017652e-06,-1.477364e-06,-3.4854485e-05,6.2124155e-07,-6.932007e-06,1
6.24716e-06,3.1652676e-06,-2.632464e-08,3.111951e-07,-3.799385e-06,5.759225e-07,-3.807678e-06,1.1906908e-06,-1.4087644e-06,-2.8140234e-05,2.803283e-06,-4.413391e-06,1
5.575428e-06,2.4939477e-06,-2.6407925e-08,-6.9592545e-07,-1.2818285e-06,-1.7737925e-06,-4.143593e-06,3.510128e-07,-2.2659542e-06,-1.605481e-05,2.971134e-06,-5.25176e-06,1
5.9107924e-06,2.4940248e-06,-1.0335867e-06,-6.9595194e-07,-1.9534073e-06,-5.8019996e-06,-4.1438107e-06,-9.92213e-07,-3.4916911e-06,-2.9622895e-06,2.8555053e-07,-1.1293457e-05,1
6.2461554e-06,1.6548548e-06,-6.979717e-07,3.1111557e-07,-2.4571361e-06,-7.8160165e-06,-3.1369339e-06,1.4449313e-08,-4.0944633e-06,7.2767903e-06,-2.5678853e-06,-1.6999455e-05,1
4.903027e-06,1.442888e-07,6.4473875e-07,-1.9245789e-07,-1.953771e-06,-6.8087465e-06,-2.130055e-06,1.6925084e-06,-3.9446445e-06,1.701232e-05,-3.07143e-06,-1.699858e-05,1
1.3778574e-06,-1.3662772e-06,1.1482028e-06,-2.3745233e-06,6.023757e-08,-5.633627e-06,-3.4730706e-06,1.5242252e-06,-4.8346205e-06,2.6076452e-05,-1.7286337e-06,-1.3640722e-05,1
-2.3151613e-06,-2.2054462e-06,3.0887304e-07,-3.7173447e-06,2.409945e-06,-5.1299053e-06,-4.312537e-06,1.6916397e-06,-4.0945747e-06,3.2958542e-05,-5.536885e-07,-1.0450713e-05,1
-3.4904429e-06,-2.3732182e-06,-1.369703e-06,-3.717371e-06,1.0669683e-06,-3.4512373e-06,-3.97706e-06,4.0410937e-06,-3.273446e-06,3.4301607e-05,1.1248067e-06,-9.778443e-06,1
-5.169271e-06,-3.0445383e-06,-3.048279e-06,-3.3816993e-06,-2.9615958e-06,-2.779664e-06,-4.145131e-06,4.208508e-06,-5.6740005e-06,3.0609193e-05,3.3068488e-06,-1.1120365e-05,1
-9.8693845e-06,-4.2194065e-06,-3.048363e-06,-4.38882e-06,-4.808121e-06,-3.1151887e-06,-1.963311e-06,6.8323726e-07,-8.962314e-06,2.4902585e-05,3.64255e-06,-1.1623042e-05,1
-1.1212515e-05,-2.8765355e-06,-3.3841454e-06,-4.053148e-06,-4.304756e-06,-2.9471644e-06,2.232696e-06,-3.8491294e-06,-1.049116e-05,1.9531673e-05,3.4747031e-06,-1.1286474e-05,1
-8.527264e-06,-8.6226754e-07,-4.223476e-06,-2.3746813e-06,-4.30494e-06,-5.9709777e-07,3.910963e-06,-4.520964e-06,-9.870364e-06,1.6342803e-05,2.2997601e-06,-1.0949906e-05,1
-6.34556e-06,9.841514e-07,-3.048615e-06,-8.640646e-07,-3.2980297e-06,5.78021e-07,6.932026e-06,-8.287182e-07,-9.298122e-06,1.48324225e-05,2.8557227e-07,-1.11168865e-05,1
-6.5137474e-06,1.8234732e-06,-6.988102e-07,-1.9269478e-07,-9.483228e-07,2.4249894e-07,1.1799427e-05,3.199225e-06,-8.141466e-06,1.2314945e-05,2.8557432e-07,-1.094817e-05,1
-5.8426854e-06,3.502043e-06,-1.2024421e-06,1.4297703e-07,8.9783396e-07,1.081922e-06,1.0792107e-05,5.548675e-06,-7.184909e-06,9.965314e-06,4.5342532e-07,-8.093865e-06,1
-2.6538873e-06,4.509216e-06,-3.2167175e-06,4.786489e-07,1.7368944e-06,2.4248923e-06,1.560175e-06,3.8697435e-06,-6.109094e-06,8.11923e-06,-1.0572167e-06,-4.903863e-06,1
-1.8149784e-06,3.1664986e-06,-5.0631434e-06,9.821717e-07,1.0653138e-06,2.4250687e-06,-7.0003653e-06,-2.3411187e-06,-5.456073e-06,6.440994e-06,-3.5749526e-06,-1.2103142e-06,1
-4.1652047e-06,2.3273285e-06,-4.895379e-06,2.1570897e-06,-1.0981614e-07,5.7890236e-07,-9.854029e-06,-7.041338e-06,-6.010095e-06,5.098455e-06,-3.7428017e-06,1.4761387e-06,1
-6.179733e-06,1.6560082e-06,-3.7205184e-06,6.464206e-07,7.292457e-07,7.5532085e-08,-8.343614e-06,-7.041779e-06,-6.4449014e-06,3.9237634e-06,-1.0572109e-06,3.6590418e-06,1
-5.8443716e-06,1.152538e-06,-1.8742616e-06,-6.963985e-07,1.0647584e-06,2.257748e-06,-6.497501e-06,-6.202975e-06,-6.4633628e-06,3.2526182e-06,1.1248311e-06,6.009795e-06,1
-7.5232024e-06,1.1526147e-06,-1.2029493e-06,1.4282051e-07,-2.782212e-07,4.104267e-06,-4.315692e-06,-6.2034173e-06,-5.1709803e-06,2.5814713e-06,9.56984e-07,7.0177525e-06,1
-1.1384072e-05,1.8240875e-06,-1.0351848e-06,6.463425e-07,-2.124749e-06,3.7687464e-06,5.517048e-07,-7.3788046e-06,-3.0880221e-06,9.032276e-07,1.17739766e-07,7.1864642e-06,1
-1.3230752e-05,2.159862e-06,-3.6387274e-07,1.4276856e-07,-1.6213879e-06,1.2511857e-06,4.5798547e-06,-6.8757004e-06,-2.2673237e-06,-1.2785654e-06,-5.010841e-08,6.851625e-06,1
-1.0209806e-05,1.1528448e-06,3.0743934e-07,-1.3679004e-06,3.9261684e-07,-1.9377728e-06,2.9011321e-06,-2.8477627e-06,-2.6533708e-06,-2.6211137e-06,2.855934e-07,7.1881855e-06,1
-5.006817e-06,8.1722345e-07,-1.371138e-06,-1.8714733e-06,1.7352244e-06,-2.7768401e-06,1.2224057e-06,1.5158736e-06,-2.5845811e-06,-2.7887193e-06,-2.1795384e-07,7.3568935e-06,1
-6.4307426e-07,8.173001e-07,-2.3783186e-06,-1.2001032e-06,2.0707369e-06,-1.2660212e-06,2.2292706e-06,4.2010165e-06,-9.247215e-07,-1.7813816e-06,-2.3999921e-06,8.196998e-06,1
2.2100241e-06,9.852257e-07,-2.042705e-06,-6.9658e-07,3.749043e-06,2.4480084e-07,4.411075e-06,4.871967e-06,-1.3575986e-07,-7.7404513e-07,-1.7285923e-06,9.876348e-06,1
3.5524783e-06,3.1390428e-07,-1.707092e-06,-1.0323058e-06,5.427348e-06,1.587773e-06,4.914392e-06,5.039371e-06,9.4014825e-07,-2.7879967e-06,9.569964e-07,1.0548602e-05,1
2.2093463e-06,-1.1966622e-06,-1.2036296e-06,-1.7037277e-06,4.2522156e-06,2.9307464e-06,4.9141568e-06,1.8497882e-06,1.928524e-06,-6.648291e-06,2.299792e-06,8.870965e-06,1
-3.1621696e-06,-3.2107755e-06,-1.371564e-06,-3.0465485e-06,3.748481e-06,1.7559789e-06,3.571125e-06,-3.689684e-06,1.8783035e-06,-9.333643e-06,2.2997938e-06,8.703972e-06,1
-8.701533e-06,-4.889192e-06,-7.002527e-07,-3.0465742e-06,2.2376505e-06,-5.937305e-07,1.3888507e-06,-7.550664e-06,1.9471397e-06,-1.0676202e-05,9.570012e-07,1.2229661e-05,1
-9.373268e-06,-2.8749246e-06,6.4245575e-07,-3.0465999e-06,-2.8027648e-07,-1.7684977e-06,1.2207606e-06,-8.558208e-06,1.592636e-06,-8.829627e-06,2.8560692e-07,1.4580405e-05,1
-5.8487735e-06,-5.2495807e-07,2.3208627e-06,-3.2144746e-06,-1.1197106e-06,-8.9825654e-08,8.84825e-07,-8.390807e-06,-1.4788071e-06,-7.654451e-06,1.2927024e-06,1.3574161e-05,1
-1.6528833e-06,6.500614e-07,3.4957216e-06,-3.0466513e-06,-1.1280392e-07,7.496005e-07,-4.582063e-07,-6.8806135e-06,-5.43833e-06,-5.304331e-06,2.2998001e-06,1.3407164e-05,1
-4.782781e-07,-1.8910715e-07,3.1599373e-06,-1.3681838e-06,5.5840553e-07,9.1762877e-07,-1.2976903e-06,-4.6990235e-06,-6.1286178e-06,-2.1149672e-06,2.8561158e-07,1.4079414e-05,1
-1.989261e-06,-1.8675237e-06,2.3206055e-06,-2.5415442e-08,-4.488792e-07,-4.2498579e-07,-1.1300809e-06,-2.6852829e-06,-4.3323694e-06,-1.0054942e-07,-2.0642779e-06,1.1730375e-05,1
-4.3394903e-06,-1.6995983e-06,3.3276149e-06,8.1380597e-07,5.4478836e-08,-2.5695718e-07,-9.624722e-07,-3.358451e-07,-1.242201e-06,2.7531132e-06,-7.214824e-07,7.031446e-06,1
-3.3327362e-06,-3.5672693e-07,5.6774184e-06,9.816295e-07,1.0613857e-06,-4.2462642e-07,7.157778e-07,1.5100459e-06,-1.0933287e-06,2.585488e-06,1.6284081e-06,6.3608977e-06,1
-2.4938286e-06,1.6575394e-06,7.355825e-06,-3.6119008e-07,1.5647433e-06,-1.5993925e-06,1.5547852e-06,2.8523868e-06,-9.755083e-07,-1.6105205e-06,7.8916446e-07,8.208088e-06,1
-4.004813e-06,4.0075047e-06,6.1807937e-06,-1.2004625e-06,1.7324027e-06,9.185276e-07,-4.596501e-07,5.537522e-06,7.718889e-07,-3.960189e-06,-1.5607231e-06,7.873237e-06,1
-5.3479475e-06,4.343281e-06,4.166517e-06,-2.039733e-06,1.0608169e-06,3.2685969e-06,-4.488274e-06,7.215562e-06,2.599167e-06,-3.2885728e-06,-3.0713647e-06,6.8669874e-06,1
-6.6910834e-06,2.8327145e-06,2.991486e-06,-2.3754565e-06,1.3963249e-06,1.4224352e-06,-5.9991607e-06,8.557902e-06,2.884901e-06,-3.959752e-06,-2.7356655e-06,7.203533e-06,1
-9.209161e-06,9.864486e-07,2.3200027e-06,-1.2005388e-06,4.0817226e-06,5.833687e-07,-4.488762e-06,1.3928624e-05,1.6110348e-06,-5.470178e-06,-1.39287e-06,5.6937356e-06,1
-1.2230789e-05,-1.027667e-06,3.3270119e-06,1.8207228e-06,6.431422e-06,7.514004e-07,-1.6355688e-06,2.1145686e-05,9.204881e-07,-5.3021145e-06,-1.2250197e-06,2.5054437e-06,1
-2.0287893e-05,-2.8739319e-06,3.6626238e-06,4.506285e-06,8.109724e-06,-8.766576e-08,-1.1322674e-06,2.3327271e-05,3.1341653e-08,-4.294806e-06,-2.0642653e-06,-1.1451712e-08,1
-2.6330808e-05,-5.5594437e-06,2.1518943e-06,3.834862e-06,7.605985e-06,-2.5533376e-07,-1.3003626e-06,1.8962735e-05,-9.06803e-07,-3.9588963e-06,-3.7427571e-06,8.2863795e-07,1
-1.7602988e-05,-5.7272164e-06,1.1447123e-06,1.3170999e-06,5.255904e-06,4.1624338e-07,-2.1398544e-06,1.1912612e-05,7.5245384e-07,-2.9515904e-06,-4.414152e-06,3.850766e-06,1
5.224166e-06,1.6582258e-06,2.9909672e-06,-2.5720428e-08,3.5772205e-06,2.4857567e-07,-4.61612e-07,2.5125964e-06,2.0454122e-06,-9.371913e-07,-3.7427546e-06,9.558481e-06,1
2.5030035e-05,9.379367e-06,5.0050717e-06,-3.6144365e-07,4.080577e-06,2.4875715e-07,2.895125e-06,-1.0244403e-05,1.610837e-06,7.415082e-07,-2.2321094e-06,1.4762648e-05,1
2.5701089e-05,9.211594e-06,2.9907937e-06,-1.2007158e-06,4.5839333e-06,2.4893876e-07,1.216382e-06,-2.5183443e-05,-1.0940716e-06,2.2523568e-06,-3.8576735e-07,1.7113376e-05,1
