emg1,emg2,emg3,emg4,emg5,emg6,emg7,emg8,emg9,emg10,emg11,emg12,label
3.732071e-05,1.3996124e-06,2.2011773e-06,8.808132e-07,2.3457783e-06,-1.3222744e-06,-1.626098e-05,1.36981025e-05,-4.56116e-07,-5.080193e-06,6.577255e-07,-1.2102552e-05,3
3.5474346e-05,-1.4539465e-06,-3.1656128e-07,-7.9797485e-07,1.2121667e-06,-3.336301e-06,-1.2233529e-05,3.0487316e-05,-4.564844e-07,-3.4017007e-06,-3.49446e-07,-1.19299675e-05,3
2.0200041e-05,-4.8110533e-06,-3.505697e-06,-1.8053669e-06,1.499903e-07,-4.3432333e-06,-6.359735e-06,3.2841497e-05,-1.2115395e-07,-2.0589068e-06,-1.5244653e-06,-1.2260926e-05,3
8.786268e-06,-4.8111756e-06,-4.177094e-06,-9.664158e-07,3.1224988e-07,-5.0144686e-06,-1.1573404e-06,3.8552666e-05,3.8202754e-07,7.9453014e-07,-6.8529573e-07,-1.2591879e-05,3
7.2755993e-06,-1.7900118e-06,-3.3378478e-06,2.0823144e-07,8.5210814e-07,-3.5036626e-06,5.2199994e-06,5.097781e-05,1.0530588e-06,3.480118e-06,-1.8182196e-07,-1.3426374e-05,3
9.457612e-06,1.9025473e-06,-4.0092445e-06,8.793337e-07,-3.1787172e-07,-3.839199e-06,1.1597334e-05,6.138876e-05,-7.9364753e-07,4.8229117e-06,9.930469e-07,-1.3085919e-05,3
1.0128982e-05,5.427257e-06,-4.6806417e-06,2.2218321e-06,-6.8850784e-07,-4.5104366e-06,1.428199e-05,6.5925e-05,-1.8011077e-06,5.8300075e-06,2.0000678e-06,-1.22419115e-05,3
1.02968015e-05,6.937775e-06,-3.505697e-06,2.0536866e-06,6.4734337e-07,-4.174576e-06,1.4784602e-05,7.4657466e-05,-4.5867702e-07,9.019142e-06,9.928967e-07,-1.2572843e-05,3
1.2478811e-05,6.601951e-06,-1.6593552e-06,2.38909e-06,2.55276e-06,-2.4959227e-06,1.5790765e-05,9.0271766e-05,2.8979455e-06,1.170473e-05,-3.4997225e-07,-1.3239467e-05,3
1.5332218e-05,5.9304252e-06,-1.4871206e-07,3.2280407e-06,3.872892e-06,-4.815728e-07,1.5118429e-05,8.65834e-05,8.9401565e-06,5.9978565e-06,-6.8574616e-07,-1.4409634e-05,3
1.8185623e-05,6.6016964e-06,1.0262326e-06,4.0669916e-06,5.147597e-06,2.8755717e-06,1.142481e-05,5.1675077e-05,1.011474e-05,-7.765781e-06,-1.4421981e-08,-1.6083344e-05,3
1.8017741e-05,6.601568e-06,2.8725742e-06,4.5702445e-06,5.5651e-06,5.2256196e-06,8.066887e-06,1.1731282e-05,6.9252446e-06,-2.0522322e-05,4.8905025e-07,-1.5407159e-05,3
1.3485777e-05,4.0836994e-06,1.5297803e-06,4.5699494e-06,4.7513267e-06,4.2186825e-06,7.730251e-06,-1.0420489e-05,6.2534887e-06,-2.4550704e-05,1.3282206e-06,-1.3388174e-05,3
7.946719e-06,-2.8050957e-07,-4.512792e-06,3.2268604e-06,3.4580044e-06,2.7081985e-06,1.3100489e-05,-2.2837e-05,8.6030195e-06,-2.1529419e-05,1.663846e-06,-1.32155255e-05,3
3.7504515e-06,-2.7983792e-06,-1.0387515e-05,1.3802245e-06,3.0169174e-06,3.0440553e-06,1.9813519e-05,-3.8946193e-05,9.609757e-06,-1.5822545e-05,1.3280714e-06,-1.606416e-05,3
3.2468668e-06,-2.6306614e-06,-1.07232145e-05,1.5477788e-06,3.1037519e-06,4.3870045e-06,2.2833867e-05,-5.3041193e-05,7.259512e-06,-1.0954917e-05,2.670791e-06,-1.8409239e-05,3
5.7645684e-06,2.2264356e-07,-8.541174e-06,4.065222e-06,3.3052827e-06,7.576298e-06,2.2497223e-05,-5.471534e-05,1.887981e-06,-6.255138e-06,4.3492096e-06,-1.7565178e-05,3
6.939474e-06,3.9151937e-06,-7.030531e-06,3.8970784e-06,3.6511212e-06,8.247852e-06,2.1489188e-05,-4.9004124e-05,4.128461e-08,-2.0589068e-06,6.866874e-06,-1.6385413e-05,3
6.1001883e-06,5.2578544e-06,-5.855586e-06,2.2182921e-06,3.7836955e-06,6.905214e-06,2.0145451e-05,-4.3460746e-05,5.747804e-06,1.1302286e-06,7.706046e-06,-1.7723381e-05,3
5.0930526e-06,6.264815e-06,-3.673546e-06,1.5466007e-06,4.5149036e-06,6.401822e-06,2.165515e-05,-3.7581674e-05,1.1118627e-05,3.480118e-06,6.866726e-06,-2.1914782e-05,3
4.757313e-06,7.607474e-06,1.8698641e-07,2.2177035e-06,4.464349e-06,5.059183e-06,2.2997003e-05,-3.6234524e-05,9.104084e-06,3.480118e-06,5.5238575e-06,-2.4595534e-05,3
4.7572707e-06,8.950133e-06,4.3832174e-06,4.06375e-06,4.7733856e-06,4.3879395e-06,2.45067e-05,-4.2272735e-05,4.5718034e-06,2.808721e-06,5.523784e-06,-2.6101337e-05,3
2.0716395e-06,1.1803434e-05,6.397408e-06,5.4062502e-06,6.567448e-06,5.563039e-06,2.5009302e-05,-4.864664e-05,3.564357e-06,2.3051732e-06,7.2022026e-06,-2.6432188e-05,3
-1.10444894e-07,1.43210345e-05,8.411599e-06,5.2381074e-06,6.9799107e-06,7.4095346e-06,2.3162016e-05,-4.343895e-05,5.913897e-06,1.8016256e-06,8.377073e-06,-2.2231106e-05,3
-3.971022e-06,1.3985199e-05,1.2272132e-05,4.7342664e-06,6.0814455e-06,6.2347435e-06,1.9971932e-05,-2.5139012e-05,7.75989e-06,2.3051732e-06,5.355712e-06,-1.7358621e-05,3
-9.677944e-06,9.956677e-06,1.478987e-05,4.9018217e-06,5.0812296e-06,3.8850076e-06,1.6110453e-05,-2.9785397e-06,7.591693e-06,3.647967e-06,3.3414483e-06,-1.7353761e-05,3
-1.4042071e-05,7.606649e-06,1.3782775e-05,5.405075e-06,3.3103486e-06,2.206667e-06,1.09061775e-05,1.3810761e-05,4.7379085e-06,5.494309e-06,2.8378256e-06,-2.1041576e-05,3
-1.5552761e-05,1.0795645e-05,1.4622021e-05,3.8941384e-06,1.714276e-07,2.4780093e-08,2.6806165e-06,2.6235986e-05,1.5484263e-06,5.662158e-06,8.2356195e-07,-2.5736485e-05,3
-1.2867223e-05,1.4991736e-05,1.7979006e-05,2.0116099e-07,-2.6403911e-06,-3.3320532e-06,-1.0412574e-05,3.7989816e-05,-2.4803005e-06,3.647967e-06,-1.6942496e-06,-3.0095685e-05,3
-8.335344e-06,1.4655894e-05,2.2678783e-05,-2.4847184e-06,-4.5405886e-06,-7.1924337e-06,-2.6191352e-05,4.4708173e-05,-6.341177e-06,2.137324e-06,-8.5507804e-07,-3.5797675e-05,3
-9.006792e-06,4.08125e-06,2.0328895e-05,-2.8207116e-06,-5.3864183e-06,-9.542174e-06,-3.6934656e-05,4.101988e-05,-9.866355e-06,4.8229117e-06,6.5549256e-07,-3.780698e-05,3
-1.5217266e-05,-1.1361023e-05,7.068805e-06,-2.8210047e-06,-3.840183e-06,-9.542024e-06,-4.281033e-05,2.4575049e-05,-1.2216588e-05,6.333555e-06,-1.8382674e-07,-1.8667275e-05,3
-2.0420644e-05,-1.5893096e-05,-1.6593552e-06,-1.1428058e-06,-3.0895558e-07,-8.534776e-06,-4.751106e-05,4.1018397e-06,-1.3224025e-05,2.3051732e-06,-1.6049977e-08,1.9607249e-05,3
-1.9077905e-05,-6.8293816e-06,2.033328e-06,8.7109333e-07,-3.4400307e-07,-7.86323e-06,-4.3483633e-05,-8.650302e-06,-1.23851205e-05,-3.7373993e-06,6.5527286e-07,5.083211e-05,3
-2.0252905e-05,1.5629354e-06,9.418694e-06,1.9940252e-07,-3.3736603e-06,-7.0238348e-06,-2.720321e-05,-9.149445e-06,-1.037127e-05,-7.597932e-06,1.1587467e-06,5.687959e-05,3
-2.5791986e-05,3.2412825e-06,1.1097187e-05,-3.3257243e-06,-4.992125e-06,-5.513043e-06,-1.0083543e-05,-1.0882738e-06,-9.196664e-06,-8.101479e-06,6.5512677e-07,4.1778072e-05,3
-2.46171e-05,2.2340387e-06,5.054614e-06,-7.522247e-06,-4.8460656e-06,-5.8485953e-06,-3.874076e-06,7.8121475e-06,-6.3435646e-06,-8.605027e-06,-6.877412e-07,1.7948398e-05,3
-1.3371257e-05,3.7445352e-06,-1.4871206e-07,-8.193937e-06,-3.9085703e-06,-6.5198433e-06,-6.057071e-06,9.495054e-06,-5.6725057e-06,-9.108576e-06,-1.6949081e-06,3.291539e-07,3
-3.8039082e-06,5.422879e-06,-7.3662295e-06,-6.6835864e-06,-3.9945926e-06,-4.673355e-06,-8.072218e-06,1.6105579e-06,-6.5120876e-06,-5.9194394e-06,-3.7091718e-06,-9.065476e-06,3
5.763438e-06,6.933374e-06,-1.9451374e-05,-3.494743e-06,-5.6461286e-06,-2.323317e-06,-5.219738e-06,7.1540044e-06,-4.4982326e-06,1.6337763e-06,-4.2127936e-06,-1.0571185e-05,3
1.9023468e-05,5.9261274e-06,-2.9522329e-05,-4.737481e-07,-4.9261944e-06,-1.1482274e-06,4.0110103e-06,3.988903e-05,-8.058845e-07,1.28796755e-05,-3.8771664e-06,-8.887753e-06,3
2.8590814e-05,2.401143e-06,-3.606845e-05,3.6520487e-07,-3.327244e-07,-1.1480813e-06,1.4416704e-05,9.310167e-05,1.879369e-06,2.1943535e-05,-4.0450896e-06,-8.88281e-06,3
2.5905161e-05,-1.1238419e-06,-3.7243393e-05,8.6846194e-07,3.6160866e-06,-1.4836337e-06,2.0458318e-05,0.00014111097,3.2218293e-06,2.5971916e-05,-3.5416122e-06,-1.1563448e-05,3
1.449135e-05,-5.488073e-06,-3.388641e-05,1.539567e-06,3.817652e-06,-4.7639253e-07,2.6164234e-05,0.00016260012,3.5571954e-06,2.6475464e-05,-3.2059868e-06,-1.4244082e-05,3
4.420331e-06,-9.348759e-06,-2.5158248e-05,1.5392753e-06,2.9871123e-06,5.308472e-07,3.2541546e-05,0.00015437994,4.0604114e-06,2.4293424e-05,-3.03821e-06,-1.4406973e-05,3
2.0703767e-06,-9.1810625e-06,-1.39123495e-05,1.9618878e-07,4.3486577e-07,1.9529354e-07,3.5729718e-05,0.00012652142,2.3815885e-06,2.1607837e-05,-5.3881713e-06,-1.1548572e-05,3
5.0915964e-06,-5.6563827e-06,-4.344943e-06,-1.3147458e-06,-5.114821e-07,-1.9866027e-06,3.3211018e-05,7.701033e-05,8.706162e-07,2.076859e-05,-6.7310375e-06,-7.850919e-06,3
5.595077e-06,-2.9709495e-06,5.054614e-06,-1.986433e-06,-1.4025557e-06,-4.5041993e-06,2.7671029e-05,2.4897165e-06,8.702873e-07,1.9425795e-05,-4.8847687e-06,-6.3353023e-06,3
2.7415717e-06,-2.635406e-06,1.5964815e-05,-4.3366135e-06,-3.1079373e-06,-4.504056e-06,1.7095563e-05,-8.780872e-05,1.8770545e-06,1.4893867e-05,-3.7098957e-06,-7.5052676e-06,3
-6.1548366e-07,-3.3069591e-06,2.3853729e-05,-7.0224937e-06,-4.8373677e-06,-3.4968166e-06,-2.6022791e-08,-0.00016770052,6.5765057e-06,9.354841e-06,-3.7099676e-06,-1.05215695e-05,3
-4.140388e-06,-2.8035681e-06,2.1839538e-05,-8.029879e-06,-6.2717518e-06,-4.1680714e-06,-1.6476213e-05,-0.00021872221,1.1443807e-05,4.6550626e-06,-4.5492866e-06,-1.2195073e-05,3
-6.993895e-06,-2.4680278e-06,1.2272132e-05,-8.533719e-06,-6.6677458e-06,-5.678575e-06,-2.5373189e-05,-0.00024406299,1.2450578e-05,2.9098243e-07,-5.3886033e-06,-9.504492e-06,3
-8.50461e-06,-2.468186e-06,5.2224636e-06,-9.205405e-06,-6.1562523e-06,-7.860472e-06,-2.9906083e-05,-0.00022509157,9.428966e-06,-4.073098e-06,-4.885128e-06,-1.2748793e-06,3
-9.343929e-06,-2.1326473e-06,2.033328e-06,-9.037847e-06,-5.0731987e-06,-6.853236e-06,-2.8899954e-05,-0.00014519085,7.5823014e-06,-8.26933e-06,-2.5353106e-06,7.961833e-06,3
-9.344003e-06,-2.1328071e-06,-8.20109e-07,-6.8560985e-06,-2.0030718e-06,-2.6568653e-06,-1.8158571e-05,-5.7233385e-05,7.078431e-06,-1.0283519e-05,-1.8549231e-07,1.1659525e-05,3
-6.1549445e-06,-1.6294197e-06,-3.505697e-06,-5.010047e-06,-1.1488296e-07,1.0359596e-06,-7.08149e-06,-1.4427354e-05,6.574561e-06,-1.0283519e-05,1.9964762e-06,7.804007e-06,3
-2.6301866e-06,-7.903349e-07,-6.359134e-06,-5.3460353e-06,-5.031575e-07,4.560933e-06,-2.3826808e-06,-5.191168e-06,6.9099387e-06,-9.444273e-06,3.3391987e-06,-9.1913506e-07,3
-6.160725e-07,2.1659902e-07,-5.855586e-06,-4.5070788e-06,1.6066733e-07,5.9038643e-06,9.733347e-07,-1.6618532e-06,7.916714e-06,-9.779971e-06,4.6819214e-06,-8.803025e-06,3
3.909456e-07,2.9020243e-06,-3.3378478e-06,-1.4860838e-06,1.2025836e-06,5.568305e-06,4.161501e-06,1.5317671e-06,6.573601e-06,-9.108576e-06,4.514e-06,-1.2826377e-05,3
-1.2876253e-06,3.2375597e-06,-1.3236568e-06,6.9566727e-07,2.0496911e-06,5.904141e-06,6.678269e-06,1.0327063e-06,1.873504e-06,-8.437179e-06,3.1711359e-06,-1.601048e-05,3
-3.637594e-06,2.5659965e-06,-1.6593552e-06,5.275274e-07,1.6820267e-07,5.9042786e-06,6.1737505e-06,7.014989e-07,-3.4979892e-06,-8.605027e-06,1.3247218e-06,-1.818748e-05,3
-2.6305809e-06,2.5658317e-06,-8.20109e-07,-1.4415934e-07,-1.855827e-06,4.561624e-06,4.326436e-06,4.5665247e-06,-7.526688e-06,-8.940726e-06,-1.8599128e-07,-1.8182438e-05,3
3.9062434e-07,4.579857e-06,-4.844105e-07,3.59098e-07,-1.7948205e-06,4.226061e-06,2.97082e-07,1.3970579e-05,-1.0883989e-05,-9.444273e-06,9.888818e-07,-1.7002443e-05,3
2.2368836e-06,5.9224844e-06,-1.4871206e-07,5.266585e-07,3.6630482e-07,3.5548012e-06,-3.9001225e-06,2.7235168e-05,-1.2059248e-05,-8.605027e-06,3.842249e-06,-1.4143953e-05,3
4.754539e-06,4.9152236e-06,1.0262326e-06,1.3656161e-06,1.3022643e-06,4.562033e-06,-4.7403414e-06,3.8149872e-05,-1.0884617e-05,-7.597932e-06,2.667232e-06,-1.0110513e-05,3
5.425851e-06,2.9008645e-06,2.8725742e-06,3.211668e-06,1.3841338e-06,6.744209e-06,-1.3843309e-06,3.6308036e-05,-5.849454e-06,-9.108576e-06,6.5297127e-07,-6.9163148e-06,3
4.754369e-06,2.061449e-06,4.7189155e-06,4.0506247e-06,1.0768713e-06,8.087138e-06,1.9716788e-06,2.036687e-05,2.4958148e-08,-1.0451368e-05,-3.541954e-07,-5.4006036e-06,3
4.250733e-06,2.5648267e-06,5.3903127e-06,2.2039947e-06,1.1244643e-06,7.751572e-06,9.63605e-07,8.454086e-06,5.395822e-06,-9.779971e-06,-3.5426598e-07,-6.738324e-06,3
5.7612897e-06,3.9074516e-06,5.2224636e-06,1.3644598e-06,1.6886543e-06,6.2410636e-06,-1.5551076e-06,7.6193573e-06,9.088195e-06,-6.5908366e-06,-1.8648649e-07,-9.418834e-06,3
7.103996e-06,6.928568e-06,6.229559e-06,3.378361e-06,3.7925474e-06,5.9054983e-06,-2.0596317e-06,1.1820107e-05,1.0094981e-05,-1.0518115e-06,-6.9010594e-07,-9.74945e-06,3
7.4396044e-06,9.949682e-06,6.7331066e-06,4.7208673e-06,5.8404808e-06,4.059291e-06,-1.0535156e-06,1.2999574e-05,1.26124105e-05,3.1444195e-06,-1.8651193e-06,-8.737267e-06,3
7.439514e-06,1.2970795e-05,5.3903127e-06,4.8884276e-06,6.183491e-06,-3.046555e-07,-1.558041e-06,9.982812e-06,1.999747e-05,4.151515e-06,-2.2008896e-06,-8.396476e-06,3
8.614367e-06,1.7334702e-05,4.3832174e-06,5.3916865e-06,4.9747723e-06,-2.990112e-06,-4.580307e-06,1.0658738e-05,2.3018449e-05,2.6408718e-06,-1.8917758e-08,-8.055681e-06,3
1.0460617e-05,2.1027212e-05,6.7331066e-06,6.5663435e-06,4.029343e-06,-4.7224108e-07,-7.099027e-06,2.0230676e-05,1.39542835e-05,-4.4716103e-08,1.9952022e-06,-5.0292915e-06,3
1.331396e-05,1.9684245e-05,7.068805e-06,7.4053014e-06,4.311998e-06,1.5420815e-06,-7.4357054e-06,3.819508e-05,2.5402303e-06,-3.4017007e-06,2.6665282e-06,-6.601059e-07,3
1.5160208e-05,1.6327085e-05,3.0404233e-06,7.4050135e-06,4.452695e-06,1.7100615e-06,-7.772384e-06,5.3977445e-05,1.9003673e-07,-4.912344e-06,1.3236642e-06,2.7019908e-06,3
1.19709775e-05,1.414487e-05,-1.3236568e-06,5.8940823e-06,3.5638238e-06,1.2066452e-06,-9.787556e-06,5.3981985e-05,2.203924e-06,-6.422987e-06,-6.905968e-07,3.2106552e-06,3
5.424761e-06,8.26997e-06,-5.3520384e-06,4.047452e-06,2.6325447e-06,3.675284e-07,-1.2138429e-05,3.6530208e-05,1.5322241e-06,-9.612122e-06,-1.1942136e-06,1.2015853e-06,3
2.0676794e-06,5.487268e-07,-9.716119e-06,3.2079186e-06,2.4032993e-06,5.355072e-07,-1.3985754e-05,1.1357373e-05,-5.014197e-06,-1.246556e-05,-2.0335283e-06,-1.1431777e-06,3
6.2638123e-06,-7.942452e-07,-9.044722e-06,3.543329e-06,9.0161933e-07,1.2070344e-06,-1.6504475e-05,-1.0290629e-05,-1.1560618e-05,-1.48154495e-05,-1.8657489e-06,-2.480841e-06,3
1.6166818e-05,4.912451e-06,-3.673546e-06,4.382289e-06,-1.0360457e-06,1.3750123e-06,-1.5498365e-05,-2.0524878e-05,-1.1728766e-05,-1.7165337e-05,-6.9087554e-07,-3.1471013e-06,3
2.1873591e-05,1.162624e-05,4.2153683e-06,4.3820014e-06,-9.885928e-07,1.2072918e-06,-1.1303117e-05,-2.3541608e-05,-7.1971376e-06,-1.7165337e-05,-1.9546018e-08,-3.141961e-06,3
2.1202095e-05,1.6829386e-05,9.418694e-06,1.8639752e-06,2.2837209e-07,8.7171975e-07,-6.436474e-06,-2.4544144e-05,-7.1974355e-06,-1.3808353e-05,3.1608258e-07,-2.633269e-06,3
1.8180706e-05,2.035404e-05,1.1097187e-05,-8.218989e-07,1.0163775e-06,5.361493e-07,-1.2341341e-06,-2.6721622e-05,-1.1226114e-05,-1.0451368e-05,8.195602e-07,-3.6352153e-06,3
1.5495016e-05,2.1360953e-05,8.747297e-06,-4.8648775e-07,-6.706716e-07,3.6842735e-07,4.303902e-06,-3.091329e-05,-1.3911999e-05,-8.772877e-06,3.15944e-07,-7.994141e-06,3
9.452339e-06,2.2367867e-05,6.7331066e-06,1.5274165e-06,-2.818715e-06,-1.813486e-06,8.331296e-06,-3.510495e-05,-1.7101429e-05,-6.422987e-06,-1.5304672e-06,-1.268876e-05,3
1.8990196e-06,2.3878327e-05,5.7260113e-06,3.0377728e-06,-1.9701015e-06,-2.3169068e-06,5.644723e-06,-3.9632305e-05,-2.3312145e-05,6.266809e-07,-3.5559228e-07,-1.3690692e-05,3
-3.304413e-06,2.5556637e-05,5.054614e-06,2.7017875e-06,1.0159512e-06,-6.3828907e-07,2.7255763e-07,-3.8284936e-05,-2.6669422e-05,9.6905405e-06,1.9942288e-06,-1.3349824e-05,3
-4.6473137e-06,2.4885052e-05,6.5652575e-06,2.533652e-06,2.0116972e-06,2.0108224e-07,-1.7426205e-06,-2.518812e-05,-2.6166168e-05,1.2711826e-05,1.9941597e-06,-1.2337556e-05,3
-4.3117234e-06,2.035294e-05,9.082996e-06,4.2118586e-06,-7.797284e-07,-1.8129839e-06,-2.7507083e-06,-4.0345344e-06,-2.7341408e-05,7.1728014e-06,-1.027196e-06,-9.982488e-06,3
-5.9903246e-06,1.6324371e-05,1.0929338e-05,5.5543655e-06,-2.3104028e-06,-3.6592005e-06,-5.6051344e-06,1.4433465e-05,-3.1873627e-05,-5.482638e-07,-4.719948e-06,-6.6203206e-06,3
-1.2704402e-05,8.9388195e-06,9.418694e-06,5.218382e-06,-1.2081566e-06,-4.4983244e-06,-8.96311e-06,2.0480626e-05,-3.3048862e-05,-5.7515904e-06,-5.7271127e-06,-5.104491e-06,3
-2.2439768e-05,-1.5903055e-05,5.054614e-06,1.6932619e-06,-1.4619231e-06,-4.33035e-06,-7.789157e-06,1.1421357e-05,-2.2642496e-05,-5.9194394e-06,-3.880838e-06,-1.130972e-05,3
-3.1503736e-05,-4.964094e-05,1.1940818e-06,-2.5032539e-06,-2.9426571e-06,-3.155283e-06,-2.418975e-06,-2.0129708e-05,-6.19356e-06,-3.0660021e-06,-1.3631687e-06,-2.1375477e-05,3
-3.5532234e-05,-6.776885e-05,-9.879583e-07,-5.5248265e-06,-4.5745137e-06,-4.3301043e-06,-1.2450209e-06,-5.55413e-05,6.5626946e-06,1.2980778e-06,-5.2399116e-07,-2.707715e-05,3
-3.1839663e-05,-6.5586995e-05,-4.0092445e-06,-7.035756e-06,-5.0182907e-06,-5.5049272e-06,-4.602999e-06,-5.536885e-05,7.7373525e-06,3.3122687e-06,-1.3633055e-06,-2.7071945e-05,3
-2.2943768e-05,-5.4676984e-05,-6.0234356e-06,-8.0431355e-06,-3.9200927e-06,-3.9941624e-06,-2.5898041e-06,-1.9444513e-05,2.0301932e-06,6.266809e-07,-1.5312228e-06,-2.2702654e-05,3
-1.6565611e-05,-4.6116864e-05,-9.044722e-06,-8.37912e-06,-2.879236e-06,-2.1476992e-06,2.7803783e-06,1.0437255e-05,-6.5567906e-07,-3.7373993e-06,-3.5634704e-07,-1.7326263e-05,3
-1.606218e-05,-3.8228143e-05,-1.3408802e-05,-7.540158e-06,-1.6983369e-06,-1.3083334e-06,6.807765e-06,1.32953e-05,2.0296247e-06,-6.422987e-06,1.6577768e-06,-1.127847e-05,3
-1.8747885e-05,-2.5639642e-05,-1.5758691e-05,-8.37969e-06,-5.5646404e-07,-4.6896596e-07,9.660206e-06,1.550464e-06,5.3863264e-06,-5.7515904e-06,3.0005017e-06,-7.580563e-06,3
-2.0930045e-05,-1.6408127e-05,-1.40801985e-05,-1.0562015e-05,8.488997e-07,1.377496e-06,1.0834154e-05,-8.683726e-06,6.3931398e-06,-2.730304e-06,4.343228e-06,-4.8897455e-06,3
-2.0090914e-05,-2.329014e-05,-1.6430089e-05,-1.07301485e-05,-8.837957e-07,1.7133134e-06,1.1336704e-05,-1.4218134e-05,3.8751205e-06,-3.804146e-07,3.839613e-06,-5.2043293e-07,3
-1.8076846e-05,-3.7725367e-05,-2.1129867e-05,-9.219789e-06,-3.764685e-06,-3.0075753e-07,9.657216e-06,-2.3277375e-05,-8.249382e-07,1.4659271e-06,1.3218051e-06,5.191679e-06,3
-1.1530846e-05,-3.8396964e-05,-1.592654e-05,-7.5415815e-06,-5.9950685e-06,-1.139887e-06,3.2779453e-06,-3.5022196e-05,-3.8465046e-06,2.9765704e-06,-1.6995476e-06,1.0903798e-05,3
2.2326703e-06,-2.5640615e-05,-2.6664504e-06,-5.1919765e-06,-5.5839323e-06,-6.3621985e-07,-7.514343e-07,-3.820671e-05,-4.686029e-06,3.983666e-06,-1.5317662e-06,1.4601728e-05,3
2.1199512e-05,-1.5234159e-05,6.9009557e-06,-2.6745215e-06,-3.2965668e-06,-8.0395114e-07,-4.1673562e-07,-2.9809618e-05,-8.378989e-06,4.6550626e-06,9.859042e-07,1.35998835e-05,3
3.378808e-05,-1.3891562e-05,3.0404233e-06,-3.5140524e-06,-1.4402901e-06,-9.716849e-07,-1.7605275e-06,-1.9062636e-05,-1.2071949e-05,4.6550626e-06,8.179877e-07,3.869886e-06,3
3.328441e-05,-1.7080896e-05,-8.373325e-06,-5.192828e-06,-1.6988324e-06,-8.0371717e-07,-4.447117e-06,-1.1672635e-05,-1.0897281e-05,3.647967e-06,9.857694e-07,-4.517316e-06,3
2.4723971e-05,-1.7584642e-05,-1.7605033e-05,-4.353865e-06,-3.099821e-07,8.748902e-07,-2.769627e-06,-4.9540286e-06,-7.204873e-06,2.4730225e-06,1.824949e-06,-9.547528e-06,3
1.8849121e-05,-1.1206571e-05,-2.1297716e-05,-9.971634e-07,1.2428027e-06,2.049951e-06,9.2205437e-07,4.1144704e-06,-5.8623527e-06,4.5883164e-07,2.3284288e-06,-1.759902e-05,3
1.952039e-05,9.102987e-06,-1.794073e-05,1.8559892e-06,2.2000468e-06,1.7143685e-06,2.2638483e-06,1.1840178e-05,-1.0394556e-05,-2.730304e-06,1.3212656e-06,-3.2532327e-05,3
2.019166e-05,3.965135e-05,-1.1226762e-05,2.694952e-06,1.1834121e-06,7.0738747e-07,1.4236005e-06,1.5201808e-05,-1.3248264e-05,-4.408796e-06,-2.1593438e-08,-4.964767e-05,3
1.7841641e-05,6.1639395e-05,-5.01634e-06,2.358971e-06,-7.9765795e-07,-1.978085e-06,2.4765006e-07,1.8563442e-05,-9.723701e-06,-3.2338517e-06,-3.5736042e-07,-6.122399e-05,3
1.3813129e-05,5.928931e-05,-3.002149e-06,2.526537e-06,-3.1366349e-06,-4.9992577e-06,-4.2475088e-07,2.5953457e-05,-3.8492485e-06,-2.0589068e-06,-1.0288243e-06,-6.256149e-05,3
9.113219e-06,4.0489987e-05,-5.1841894e-06,3.1976513e-06,-4.6825876e-06,-6.845485e-06,1.0848867e-06,3.6364763e-05,6.5571353e-06,-1.3875099e-06,-1.5324381e-06,-5.533868e-05,3
6.4274986e-06,2.4208406e-05,-5.687737e-06,3.3652175e-06,-5.5347327e-06,-7.013221e-06,3.7694706e-06,4.811887e-05,1.5620726e-05,9.623793e-07,-2.1860885e-08,-4.341609e-05,3
4.4131743e-06,1.6151438e-05,-3.002149e-06,1.1828961e-06,-4.968149e-06,-5.3346166e-06,4.272012e-06,5.7523088e-05,1.4949061e-05,3.647967e-06,2.3279604e-06,-3.333983e-05,3
2.3988493e-06,1.3297797e-05,2.3690266e-06,-1.6708243e-06,-4.651588e-06,-4.830957e-06,3.9353076e-06,6.2227526e-05,1.0416865e-05,6.333555e-06,4.006387e-06,-2.2256478e-05,3
5.523722e-07,6.7514716e-06,7.572353e-06,-2.6782016e-06,-5.0615713e-06,-3.1523523e-06,3.934301e-06,5.5853918e-05,8.570258e-06,1.1536881e-05,4.5098673e-06,-1.9414088e-06,3
-1.4619538e-06,-2.6482928e-06,1.042579e-05,-4.964436e-07,-4.4760086e-06,-6.34502e-07,6.786732e-06,3.6052377e-05,5.2130076e-06,1.3718922e-05,2.49561e-06,3.029096e-05,3
-3.9798288e-06,-9.8660175e-06,1.277568e-05,2.5245606e-06,-1.0876499e-06,1.2119509e-06,1.1317652e-05,5.1727893e-06,-4.85821e-06,1.170473e-05,-1.3649883e-06,7.276213e-05,3
-8.00835e-06,-1.120902e-05,1.5125568e-05,4.53847e-06,2.1471533e-06,1.5477593e-06,1.1148794e-05,-3.6113448e-05,-1.6272223e-05,1.0361936e-05,-2.7078486e-06,0.000119765245,3
-1.20368695e-05,-8.523641e-06,1.3782775e-05,5.7131333e-06,2.8774768e-06,1.0443224e-06,5.6087624e-06,-7.790323e-05,-1.8622373e-05,1.0865484e-05,-3.0436127e-06,0.00015350827,3
-1.2708407e-05,-8.356001e-06,6.229559e-06,5.377153e-06,1.1236139e-06,-8.0191006e-07,-1.2740663e-06,-0.00010324379,-1.4258555e-05,1.0361936e-05,-2.3722828e-06,0.00015435285,3
-1.002296e-05,-8.52406e-06,-2.8342997e-06,1.1806413e-06,4.859872e-07,-2.648144e-06,-8.660444e-06,-0.00010122492,-1.1908925e-05,8.179897e-06,1.4539121e-07,0.00012548812,3
-7.001815e-06,-6.3422303e-06,-9.212571e-06,-2.1766248e-06,6.5847814e-07,-2.1444864e-06,-1.4704027e-05,-7.302156e-05,-1.0902089e-05,5.494309e-06,2.3273644e-06,8.554534e-05,3
-4.316371e-06,-4.4961007e-06,-1.2066008e-05,-2.848304e-06,2.1367132e-06,-8.015841e-07,-1.8229872e-05,-4.5993147e-05,-6.2025692e-06,3.1444195e-06,1.6559025e-06,4.8456004e-05,3
4.7566655e-08,-4.496313e-06,-1.0387515e-05,-1.3379417e-06,3.542965e-06,1.8841106e-06,-2.0245074e-05,-4.2127922e-05,-4.959528e-07,6.266809e-07,6.4874075e-07,2.1269778e-05,3
3.068708e-06,-3.992978e-06,-5.01634e-06,1.1795174e-06,4.998299e-06,5.576901e-06,-1.9406842e-05,-4.88372e-05,3.0286244e-06,-2.0589068e-06,-2.2720894e-08,5.3294543e-06,3
3.7399595e-06,-8.040566e-07,1.6976296e-06,4.0326727e-06,5.8097603e-06,5.744857e-06,-1.823291e-05,-4.5139823e-05,3.1962177e-06,-4.408796e-06,-3.5848646e-07,-3.393347e-06,3
2.732718e-06,1.209921e-06,9.7543925e-06,7.221528e-06,5.2591186e-06,5.073567e-06,-1.8233923e-05,-2.5664609e-05,1.8531692e-06,-6.0872885e-06,1.6556401e-06,-7.248516e-06,3
2.3968717e-06,2.2168e-06,1.31113775e-05,7.892645e-06,4.998548e-06,5.57722e-06,-1.7059992e-05,9.92413e-06,3.1957086e-06,-9.779971e-06,2.3269706e-06,-8.082395e-06,3
2.3967234e-06,1.8808863e-06,9.082996e-06,6.3817215e-06,4.0956247e-06,6.4165724e-06,-1.4543269e-05,4.5177174e-05,5.2096466e-06,-1.4479751e-05,4.805643e-07,-8.7484195e-06,3
-7.9256193e-07,7.057248e-07,1.361931e-06,5.206497e-06,4.274335e-06,6.9202256e-06,-1.1355148e-05,6.7673674e-05,7.894982e-06,-1.6158243e-05,-6.944469e-07,-7.064551e-06,3
-3.981846e-06,3.2232476e-06,-4.0092445e-06,4.870519e-06,4.352187e-06,5.409686e-06,-6.1528362e-06,8.312052e-05,9.405374e-06,-1.3808353e-05,-6.9451204e-07,-4.373583e-06,3
-4.989093e-06,6.7478636e-06,-6.359134e-06,4.8702395e-06,4.2289857e-06,2.052805e-06,5.601158e-07,0.00010226005,9.908672e-06,-7.430083e-06,1.1517649e-06,-5.3752933e-06,3
-3.9821493e-06,7.58689e-06,-7.701928e-06,5.541356e-06,1.921302e-06,2.0656778e-07,6.265974e-06,0.00012106387,1.0076271e-05,-3.804146e-07,1.9909469e-06,-1.2755271e-05,3
-1.8002626e-06,5.57248e-06,-7.030531e-06,5.0375297e-06,-6.44843e-07,-1.303973e-06,8.782697e-06,0.00013315374,7.054736e-06,7.004952e-06,-1.9115797e-07,-2.0135245e-05,3
1.8922664e-06,3.55807e-06,-5.855586e-06,3.3587573e-06,-2.5017002e-06,-2.8145132e-06,6.935336e-06,0.00013785824,3.1939562e-06,1.0529786e-05,-1.0304698e-06,-2.147264e-05,3
4.9133973e-06,1.3758092e-06,-7.1983804e-06,6.7289136e-07,-2.805208e-06,-2.98226e-06,4.5844267e-06,0.00012829555,3.529408e-06,9.52269e-06,1.4441152e-07,-1.7942404e-05,3
5.9203367e-06,5.3634085e-07,-1.0387515e-05,-4.1950157e-06,-1.1142182e-06,-2.6464602e-06,8.90725e-07,9.892666e-05,5.879052e-06,9.858389e-06,6.478939e-07,-1.4244315e-05,3
5.4166326e-06,2.2146107e-06,-1.1898159e-05,-7.8879775e-06,-9.817435e-07,-2.8142078e-06,-2.1315773e-06,5.0590806e-05,8.564394e-06,1.2376127e-05,1.1513763e-06,-2.0952875e-05,3
5.0807757e-06,4.2285787e-06,-4.0092445e-06,-6.881162e-06,-2.8425745e-06,-3.149805e-06,-2.4682993e-06,-1.5537067e-05,1.0578341e-05,1.3886771e-05,1.1513118e-06,-3.5550343e-05,3
6.4234114e-06,5.4033003e-06,8.915146e-06,-4.3637e-06,-3.2820353e-06,-2.1426085e-06,1.5590654e-06,-9.0057394e-05,1.0578098e-05,1.2376127e-05,-1.7021886e-06,-4.4273085e-05,3
7.262498e-06,8.760061e-06,2.1671689e-05,-1.6783916e-06,1.0638062e-06,-7.997145e-07,4.5793277e-06,-0.00016222784,1.12492535e-05,1.0865484e-05,-3.548594e-06,-4.3931963e-05,3
6.758789e-06,9.934781e-06,3.4596083e-05,1.1747683e-06,5.0162935e-06,1.382425e-06,6.928197e-06,-0.00021341711,1.12490125e-05,1.0361936e-05,-2.541564e-06,-4.124095e-05,3
3.90519e-06,5.570475e-06,3.12391e-05,3.1886802e-06,5.0984063e-06,2.557467e-06,8.941367e-06,-0.000197131,1.0913073e-05,9.186992e-06,-1.9173814e-07,-3.871778e-05,3
4.449587e-08,-6.4017354e-07,5.7260113e-06,3.1884024e-06,2.4456551e-06,1.7183207e-06,6.2547556e-06,-9.339543e-05,1.0241437e-05,6.1657056e-06,-2.3952168e-08,-3.3509015e-05,3
-1.6341596e-06,-3.8295357e-06,-1.7772882e-05,1.8453309e-06,8.1185135e-07,8.791719e-07,1.8896535e-06,1.8732615e-05,8.394857e-06,2.6408718e-06,-6.954151e-07,-2.175413e-05,3
-7.9507896e-07,-3.997612e-06,-1.9954923e-05,2.1807523e-06,7.0210695e-07,1.5506677e-06,2.560026e-06,6.48959e-05,6.5482777e-06,9.623793e-07,-1.031177e-06,-2.7817205e-06,3
1.0510978e-06,-2.1514995e-06,-1.0387515e-05,3.523268e-06,3.481529e-06,3.2292578e-06,5.915987e-06,6.137582e-05,7.219438e-06,-2.125653e-07,-2.2061859e-06,1.9883375e-05,3
1.8901785e-06,-4.7323567e-07,-5.855586e-06,4.026539e-06,5.5294927e-06,4.5721486e-06,6.0828115e-06,5.2316715e-05,8.561996e-06,-2.5624547e-06,-1.7027004e-06,3.5666653e-05,3
2.3935584e-06,1.2050275e-06,-6.862682e-06,2.6834678e-06,5.3650074e-06,4.068696e-06,6.2496356e-06,4.9635884e-05,7.554666e-06,-5.080193e-06,4.7927597e-07,3.9364793e-05,3
3.4004852e-06,8.6909705e-07,-7.5340786e-06,-2.3970534e-09,4.326137e-06,2.893848e-06,9.605595e-06,4.9640643e-05,5.8759397e-06,-7.094384e-06,1.8220064e-06,3.7691763e-05,3
5.414508e-06,1.0367148e-06,-6.1912847e-06,-2.0168638e-06,2.3762768e-06,2.2225454e-06,1.2290157e-05,5.0148956e-05,4.532913e-06,-9.276424e-06,2.32549e-06,3.6857982e-05,3
7.764226e-06,1.8757299e-06,-2.3307523e-06,-1.8492913e-06,1.8163693e-06,4.40468e-06,1.2624829e-05,5.0657265e-05,4.364831e-06,-1.46476e-05,3.3325227e-06,4.408097e-05,3
8.435452e-06,1.8754974e-06,5.226849e-07,-8.4247165e-07,2.4596125e-06,5.244022e-06,1.1616704e-05,5.3011918e-05,3.8610524e-06,-2.1697268e-05,2.9967605e-06,5.4325246e-05,3
7.763883e-06,-4.7462484e-07,1.9137174e-08,-3.5028664e-09,2.2458885e-06,3.7334728e-06,1.1951374e-05,5.587012e-05,2.5180284e-06,-2.4047156e-05,1.9896022e-06,5.5673518e-05,3
7.595862e-06,-1.1462569e-06,-1.6593552e-06,6.676191e-07,6.422794e-07,3.3978683e-06,1.2957445e-05,6.0071125e-05,2.8534978e-06,-2.1865117e-05,1.9895392e-06,4.325815e-05,3
6.420744e-06,1.9630352e-07,-3.3378478e-06,1.1708912e-06,-1.6046185e-06,2.0551665e-06,1.396351e-05,5.9236656e-05,2.5175707e-06,-2.0858022e-05,1.6537782e-06,2.1611088e-05,3
3.734981e-06,6.9961516e-07,-2.3307523e-06,1.8420114e-06,-4.1793277e-07,-2.9462876e-07,1.2283991e-05,4.3967146e-05,8.3885124e-07,-1.9850926e-05,4.787703e-07,-2.0382424e-07,3
5.456693e-07,-4.755649e-07,1.8698641e-07,1.8417359e-06,1.3391716e-06,-7.9808456e-07,9.93307e-06,1.20805735e-05,-1.6847159e-07,-1.5990394e-05,9.822544e-07,-1.3794118e-05,3
-2.3079442e-06,-2.1542946e-06,1.6976296e-06,2.1771596e-06,1.0467052e-06,2.0554432e-06,1.0603437e-05,-3.591953e-05,3.34851e-07,-1.0787067e-05,3.107957e-07,-1.6474209e-05,3
-9.653278e-07,-2.825928e-06,3.0404233e-06,2.5125823e-06,7.532223e-07,3.3983295e-06,1.3120145e-05,-8.123404e-05,1.1738725e-06,-5.7515904e-06,-1.36776e-06,-1.5293761e-05,3
1.7200828e-06,-6.4412717e-07,4.2153683e-06,4.8621973e-06,2.7205028e-06,1.2163804e-06,1.5972553e-05,-9.935696e-05,-1.2956518e-09,-1.3875099e-06,-2.502749e-08,-1.5456106e-05,3
1.0485054e-06,2.37692e-06,5.054614e-06,7.211811e-06,4.891056e-06,-7.977203e-07,1.8657105e-05,-8.827413e-05,8.377278e-07,2.3051732e-06,2.828345e-06,-1.5282745e-05,3
1.8875721e-06,4.0551736e-06,5.054614e-06,5.868743e-06,4.5865645e-06,5.451626e-07,2.2013059e-05,-5.8560025e-05,3.3552442e-06,4.8229117e-06,3.6675306e-06,-1.5780779e-05,3
5.2443756e-06,5.5655764e-06,4.047519e-06,3.6864271e-06,2.0829452e-06,3.0629922e-06,2.3354822e-05,-3.7909776e-05,4.865666e-06,5.9978565e-06,2.9960704e-06,-1.812515e-05,3
7.258384e-06,5.061788e-06,2.033328e-06,1.3362646e-06,3.69025e-07,2.727382e-06,2.1171749e-05,-3.723358e-05,7.2153352e-06,6.6692533e-06,1.9889133e-06,-2.0301668e-05,3
6.4189544e-06,3.886602e-06,1.0262326e-06,-6.8045845e-09,-6.541899e-07,2.7274707e-06,1.529599e-05,-4.3271357e-05,8.7257595e-06,7.5084995e-06,1.821002e-06,-1.9960444e-05,3
4.7402787e-06,4.7256067e-06,1.6976296e-06,1.1678674e-06,-1.2604245e-06,4.2382007e-06,6.0632497e-06,-4.225946e-05,6.0399534e-06,6.6692533e-06,2.324487e-06,-2.0626312e-05,3
1.7188074e-06,7.5787993e-06,2.5368756e-06,1.5032915e-06,-2.6205496e-06,4.909686e-06,-7.533574e-06,-3.6883484e-05,2.8506008e-06,5.1586103e-06,2.8279721e-06,-2.3977762e-05,3
-1.4705145e-06,9.928445e-06,3.0404233e-06,1.3351687e-06,-4.88012e-06,4.5740753e-06,-2.1298247e-05,-3.1339652e-05,1.5075899e-06,2.3051732e-06,1.9886652e-06,-2.7664908e-05,3
-1.3028523e-06,1.227809e-05,3.376122e-06,-5.1144684e-07,-6.3085295e-06,5.077709e-06,-3.405582e-05,-2.092819e-05,5.002792e-07,-5.482638e-07,6.4580945e-07,-2.900216e-05,3
5.4330087e-07,1.1270749e-05,3.5439714e-06,-2.3580612e-06,-2.917253e-06,4.9099463e-06,-4.547061e-05,-6.9918933e-06,-5.070305e-07,-2.730304e-06,-3.613482e-07,-2.7989518e-05,3
3.564399e-06,7.74567e-06,3.7118202e-06,-3.5332805e-06,2.3297696e-06,2.8958411e-06,-5.0339273e-05,1.908929e-06,-1.3464901e-06,-5.7515904e-06,-3.6140977e-07,-2.5801926e-05,3
8.935385e-06,5.563383e-06,5.7260113e-06,-3.5335536e-06,5.2405144e-06,3.5673233e-06,-4.2451396e-05,3.2565383e-06,-2.6894968e-06,-1.14584645e-05,-8.650193e-07,-2.3782182e-05,3
1.212433e-05,3.548946e-06,5.3903127e-06,-2.6945793e-06,7.5177245e-06,7.595789e-06,-2.4156865e-05,7.221975e-08,-4.3682007e-06,-1.8172434e-05,-1.7043257e-06,-2.4112323e-05,3
1.0277797e-05,1.9171338e-07,1.0262326e-06,-1.5199081e-06,8.222888e-06,1.0281463e-05,-9.3871695e-06,-7.644025e-06,-3.8648645e-06,-2.1529419e-05,-2.040085e-06,-2.7295897e-05,3
4.906429e-06,-4.004766e-06,-3.3378478e-06,-8.487826e-07,6.3786733e-06,1.0617245e-05,-5.1919756e-06,-2.0395744e-05,-3.865074e-06,-2.0522322e-05,-6.973542e-07,-2.9472372e-05,3
1.0457024e-06,-5.3478093e-06,-4.6806417e-06,9.972861e-07,4.501156e-06,7.596041e-06,-6.8715085e-06,-3.5329504e-05,-6.383021e-06,-1.8172434e-05,3.0968164e-07,-2.9634652e-05,3
2.3883022e-06,-1.8232251e-06,-2.6664504e-06,3.0112049e-06,3.559245e-06,3.903441e-06,-6.5368476e-06,-4.4556386e-05,-9.404516e-06,-1.8508132e-05,-6.974764e-07,-2.5936395e-05,3
4.7379967e-06,2.5406034e-06,6.9053414e-07,3.682329e-06,3.1661943e-06,2.3928797e-06,-3.8523012e-06,-4.4048007e-05,-1.0411819e-05,-1.9011679e-05,-3.0474255e-06,-2.0223943e-05,3
2.2200618e-06,4.890243e-06,2.033328e-06,3.682057e-06,3.137637e-06,2.1092264e-07,-6.642053e-07,-3.7497055e-05,-8.397834e-06,-1.5822545e-05,-3.3831843e-06,-1.6861377e-05,3
-1.3049694e-06,5.5613873e-06,2.5368756e-06,2.1711433e-06,3.932195e-06,-2.1388848e-06,3.5309852e-06,-2.439998e-05,-4.873205e-06,-7.094384e-06,-1.704753e-06,-1.7527189e-05,3
-3.3193585e-06,1.8684516e-06,2.3690266e-06,8.280778e-07,5.51754e-06,-3.6494466e-06,7.5583253e-06,-6.099577e-06,-4.0341633e-06,7.9453014e-07,-1.2012667e-06,-2.1046433e-05,3
-5.3337476e-06,-2.8315796e-06,1.6976296e-06,-5.1498745e-07,2.9337434e-06,-4.824312e-06,9.571476e-06,1.0858033e-05,-5.7128595e-06,4.487213e-06,-2.0405723e-06,-2.3222881e-05,3
-7.683839e-06,-7.0280653e-06,-1.3236568e-06,-3.2008477e-06,-1.7534664e-06,-7.5098187e-06,9.570434e-06,3.0333389e-05,-5.545213e-06,8.347745e-06,-3.7191257e-06,-2.3049435e-05,3
-8.691133e-06,-1.0049606e-05,-5.01634e-06,-5.0474596e-06,-4.3596146e-06,-1.1370271e-05,9.569391e-06,6.575442e-05,-4.8740167e-06,1.3551073e-05,-5.733378e-06,-2.203674e-05,3
-6.0057487e-06,-1.0889108e-05,-6.0234356e-06,-3.7049365e-06,-5.157056e-06,-1.2880837e-05,1.1750387e-05,0.000106714484,-5.881313e-06,1.7411605e-05,-5.3977387e-06,-1.9345547e-05,3
-8.026246e-07,-1.172861e-05,-6.0234356e-06,-2.362412e-06,-6.457682e-06,-1.3048607e-05,1.22528945e-05,0.00012568629,-6.552909e-06,1.9593645e-05,-3.0479098e-06,-1.7661447e-05,3
3.7291018e-06,-1.2400264e-05,-6.1912847e-06,-1.3555884e-06,-6.670891e-06,-1.3887773e-05,1.225185e-05,0.00011931288,-5.5460137e-06,2.2447082e-05,-1.369478e-06,-2.1012818e-05,3
2.7218023e-06,-1.2904069e-05,-5.519888e-06,-8.523097e-07,-5.6762447e-06,-1.2880601e-05,1.4264995e-05,9.212615e-05,-3.5320193e-06,2.949675e-05,-1.369538e-06,-2.8728267e-05,3
-4.66377e-06,-1.1897231e-05,-5.519888e-06,-5.1688176e-07,-5.478224e-06,-1.1705577e-05,1.2249761e-05,3.6908597e-05,-2.525121e-06,3.5875022e-05,-2.040994e-06,-3.241533e-05,3
-1.507063e-05,-9.547601e-06,-5.1841894e-06,-1.1885497e-06,-6.6373927e-06,-1.0866255e-05,8.891731e-06,-3.8618702e-05,-3.5324122e-06,3.7217815e-05,-2.041054e-06,-1.7806824e-05,3
-2.0106312e-05,-6.1908754e-06,-3.8413955e-06,-1.1888194e-06,-8.0156515e-06,-7.3413444e-06,9.562082e-06,-8.309389e-05,-2.8612112e-06,3.218234e-05,-2.8803606e-06,1.576865e-05,3
-1.6581687e-05,-4.0090954e-06,-2.6664504e-06,-1.524787e-06,-8.536994e-06,-4.3199816e-06,1.2246625e-05,-6.999679e-05,-3.7006512e-06,2.4461273e-05,-4.0553664e-06,4.766564e-05,3
-1.0707174e-05,-2.666562e-06,-3.673546e-06,-2.7000003e-06,-6.4565393e-06,-4.152057e-06,1.140633e-05,-4.145756e-05,-4.8757884e-06,1.640451e-05,-3.384027e-06,6.1099214e-05,3
-5.3362073e-06,-2.3311254e-06,-4.344943e-06,-3.5395165e-06,-3.9552174e-06,-4.8233796e-06,9.558943e-06,-2.9703246e-05,-3.3653375e-06,1.1369033e-05,-2.2091435e-06,5.304809e-05,3
-9.723395e-07,-1.8278396e-06,-1.6593552e-06,-5.3861263e-06,-1.8523658e-06,-2.3055652e-06,1.0900689e-05,-2.5669995e-05,-8.4778986e-07,9.354841e-06,-2.880599e-06,3.4254615e-05,3
3.4544495e-08,-1.4960945e-07,3.5439714e-06,-6.7291903e-06,-4.2720157e-07,-1.2345096e-07,1.2074588e-05,-1.9454703e-05,-1.7658418e-07,8.515595e-06,-4.727e-06,1.8482431e-05,3
-1.3084624e-06,2.200015e-06,7.404504e-06,-6.22591e-06,-8.9500713e-07,-2.3054172e-06,8.045155e-06,-1.5924998e-05,-5.1247156e-07,7.676349e-06,-4.7270596e-06,1.2781206e-05,3
-4.1621142e-06,1.8640528e-06,8.915146e-06,-4.7155363e-06,-1.5237132e-06,-5.49448e-06,3.2304231e-07,-1.4913027e-05,-2.526851e-06,6.333555e-06,-2.5450786e-06,1.278686e-05,3
-4.665876e-06,5.20994e-07,9.250845e-06,-4.044407e-06,-1.1314748e-06,-7.172899e-06,-3.3706897e-06,-9.201277e-06,-3.5341336e-06,3.647967e-06,-8.666457e-07,1.2624668e-05,3
-1.1412576e-06,1.8503043e-07,6.0617094e-06,-4.716073e-06,-3.6359637e-07,-5.8300348e-06,-3.875287e-06,2.385199e-06,-2.5272252e-06,4.5883164e-07,-2.7456649e-08,1.0112591e-05,3
3.5583048e-06,-4.866328e-07,1.361931e-06,-6.898381e-06,-1.6199783e-07,-3.4800719e-06,-5.219129e-06,1.4307375e-05,-1.5203149e-06,-2.730304e-06,-2.7515524e-08,7.936216e-06,3
8.7614135e-06,1.1915934e-06,-3.673546e-06,-8.577141e-06,-3.289164e-07,-2.3050554e-06,-7.0665224e-06,2.236902e-05,-1.5204996e-06,-5.7515904e-06,6.438217e-07,6.4312408e-06,3
1.1278934e-05,2.8698178e-06,-5.1841894e-06,-8.577408e-06,9.832702e-07,-2.1371357e-06,-6.2283257e-06,2.6066587e-05,-3.1991765e-06,-8.605027e-06,4.75914e-07,5.7655147e-06,3
1.02716185e-05,2.8695495e-06,-4.0092445e-06,-6.5634854e-06,2.224235e-06,-1.2287411e-07,-4.215187e-06,2.6239324e-05,-4.877851e-06,-9.276424e-06,1.6508004e-06,9.2960245e-06,3
5.4037714e-06,4.3799228e-06,-3.1699983e-06,-5.2209575e-06,1.9980953e-06,5.485919e-07,-3.2091434e-06,1.9194547e-05,-4.878033e-06,-9.94782e-06,3.6649328e-06,1.2994389e-05,3
-2.988913e-06,5.554598e-06,-3.1699983e-06,-5.5569226e-06,1.1298555e-06,1.2200594e-06,-2.5387994e-06,1.3828262e-05,-3.53542e-06,-1.1962013e-05,4.0005725e-06,1.333577e-05,3
-9.703105e-06,4.8829315e-06,-3.3378478e-06,-5.3893405e-06,3.2683608e-06,1.7236755e-06,-2.5398517e-06,1.6686592e-05,-8.500122e-07,-1.3136956e-05,3.6648162e-06,1.0823717e-05,3
-1.1717518e-05,2.8684697e-06,-1.8272045e-06,-3.878964e-06,5.5249884e-06,2.562989e-06,-2.5409045e-06,1.836998e-05,1.4996972e-06,-1.1962013e-05,4.000456e-06,8.14382e-06,3
-1.5074727e-05,2.532498e-06,-1.6593552e-06,-4.0470795e-06,3.2756636e-06,2.8987572e-06,-2.0384066e-06,1.4514345e-05,3.1780114e-06,-1.2969107e-05,3.1611519e-06,5.4639254e-06,3
-1.977473e-05,-1.5336019e-07,-3.002149e-06,-4.5508928e-06,1.6105228e-06,3.234524e-06,-4.0536534e-06,6.966029e-06,2.338588e-06,-1.5486845e-05,1.9861488e-06,2.784036e-06,3
-1.675367e-05,-2.503523e-06,-1.8272045e-06,-3.711914e-06,2.6979467e-06,3.9059873e-06,-7.2438434e-06,9.2835774e-07,-1.1477004e-08,-1.5318996e-05,8.111458e-07,1.446943e-06,3
-1.9831625e-06,2.195981e-06,-8.20109e-07,-1.8658377e-06,3.4097181e-06,4.91315e-06,-5.5664045e-06,-1.920175e-06,8.2759396e-07,-1.1794164e-05,-1.3709521e-06,4.455517e-07,3
2.1347652e-05,9.581074e-06,-1.1558075e-06,-1.1947074e-06,3.2839332e-06,6.2560093e-06,-1.2033784e-06,-3.7616107e-06,2.1702128e-06,-8.605027e-06,-1.3710098e-06,2.8341097e-07,3
3.5614612e-05,1.2602085e-05,-9.879583e-07,-1.3628219e-06,2.400931e-06,7.263171e-06,1.1454534e-06,-6.2744416e-06,2.3378886e-06,-6.422987e-06,-2.8272504e-08,2.8912282e-07,3
3.0243205e-05,9.916222e-06,-8.20109e-07,-6.916892e-07,1.716126e-06,6.2561403e-06,-1.8768851e-06,-1.24799535e-05,4.0162085e-06,-7.094384e-06,-1.0354271e-06,7.983862e-07,3
2.017202e-05,8.237454e-06,-1.6593552e-06,1.9936326e-06,1.913057e-06,3.2349203e-06,-4.7313792e-06,-2.1203203e-05,4.855283e-06,-9.108576e-06,-1.0354846e-06,9.719552e-07,3
1.8661145e-05,1.0083519e-05,-2.4986016e-06,2.8326137e-06,4.1988494e-07,4.584871e-08,-5.2359824e-06,-2.6569465e-05,2.3373736e-06,-1.2129862e-05,-1.0355419e-06,-2.2114582e-06,3
1.9835858e-05,1.1258184e-05,-2.3307523e-06,1.993103e-06,-1.2940984e-06,-1.8004293e-06,-5.9084373e-06,-2.7235945e-05,-1.8053477e-07,-1.3304805e-05,-1.3712972e-06,-8.080457e-06,3
1.5807243e-05,9.579414e-06,-1.1558075e-06,2.6642354e-06,-4.7435762e-07,-4.5757184e-07,-5.0702474e-06,-2.5720383e-05,-1.5234965e-06,-9.779971e-06,-1.8749015e-06,-1.1096013e-05,3
9.932286e-06,4.3758077e-06,1.8698641e-07,6.0209563e-06,1.1036684e-06,2.8994762e-06,-2.050018e-06,-2.1687081e-05,-8.5226736e-07,-5.415892e-06,-1.3714116e-06,-1.1593827e-05,3
7.246463e-06,8.506942e-07,8.583834e-07,8.034883e-06,4.109462e-06,5.249428e-06,-1.547529e-06,-1.4968191e-05,1.4974543e-06,-5.080193e-06,-8.679216e-07,-1.0580995e-05,3
6.57483e-06,-2.6744192e-06,2.033328e-06,7.027523e-06,4.532139e-06,4.4102426e-06,-3.5627795e-06,-1.0431338e-05,1.3294393e-06,-6.422987e-06,6.4266544e-07,-1.2253748e-05,3
4.056854e-06,-5.192439e-06,1.6976296e-06,3.5024252e-06,2.264776e-06,2.0604155e-06,-5.5780292e-06,-1.1937055e-05,3.1756158e-06,-5.9194394e-06,1.6497046e-06,-1.8626275e-05,3
5.3178235e-07,-4.3534747e-06,1.9137174e-08,1.8236695e-06,-3.8362577e-07,1.0533826e-06,-6.5861823e-06,-1.4114167e-05,4.853944e-06,-4.408796e-06,3.1602908e-06,-2.5334497e-05,3
-3.4968373e-06,-2.0038672e-06,-1.3236568e-06,1.9912552e-06,-3.419485e-07,2.5640843e-06,-6.0836946e-06,-1.2095046e-05,2.1681933e-06,-1.5553592e-06,3.99948e-06,-2.5496596e-05,3
-6.350515e-06,-1.5006032e-06,-8.20109e-07,8.1604793e-07,-1.1830621e-07,5.0818844e-06,-6.924002e-06,-2.6905573e-06,-1.6925017e-06,9.623793e-07,3.999424e-06,-2.129461e-05,3
-5.6793574e-06,-1.5008868e-06,-1.1558075e-06,-8.627071e-07,-1.8838276e-07,4.9140954e-06,-7.764308e-06,5.37114e-06,-3.539004e-06,-3.804146e-07,3.3279703e-06,-1.6589074e-05,3
-4.5046545e-06,-2.0047182e-06,-8.20109e-07,-2.373613e-06,-1.1617552e-06,2.2285656e-06,-6.0868756e-06,5.208227e-06,-3.2034661e-06,-4.073098e-06,2.488667e-06,-1.2387083e-05,3
-5.344142e-06,-2.6764003e-06,-1.3236568e-06,-2.5417246e-06,-2.6726232e-06,-7.9266067e-07,-4.073747e-06,-1.5801155e-07,-3.5393234e-06,-6.422987e-06,1.1458166e-06,-8.520786e-06,3
-5.847933e-06,-3.1802338e-06,-1.4915059e-06,-8.63495e-07,-2.1991489e-06,-1.1283023e-06,-7.1782307e-07,-4.685002e-06,-2.196689e-06,-6.422987e-06,6.422134e-07,-5.82943e-06,3
-6.6874245e-06,-4.523314e-06,-8.20109e-07,8.147348e-07,-1.1811865e-07,2.7322894e-06,2.470251e-06,-6.694251e-06,1.160139e-06,-6.0872885e-06,1.6492534e-06,-3.4737702e-06,3
-5.8484225e-06,-4.523601e-06,3.5483563e-07,1.1501717e-06,9.976536e-07,5.921481e-06,5.994023e-06,-5.0108156e-06,1.1599825e-06,-5.7515904e-06,2.3205935e-06,-2.6287485e-06,3
-4.3380264e-06,-3.516793e-06,2.5368756e-06,6.4636185e-07,-8.7815e-07,3.907348e-06,8.8463985e-06,-1.9845836e-06,6.562788e-07,-4.7444946e-06,2.3205375e-06,-2.7908204e-06,3
-3.163328e-06,-2.845684e-06,2.3690266e-06,-6.9669375e-07,-2.0955115e-06,3.2360083e-06,9.013184e-06,3.22369e-06,-1.8312214e-07,-4.073098e-06,2.8240286e-06,-3.120737e-06,3
-3.1013795e-07,-1.3353311e-06,2.033328e-06,-1.5362023e-06,-3.195918e-06,4.2431584e-06,6.662231e-06,9.271211e-06,-2.3653158e-06,-5.080193e-06,3.3275219e-06,-2.779254e-06,3
2.0395023e-06,1.7502319e-07,1.361931e-06,-1.3686144e-06,-3.9358474e-06,3.5718178e-06,2.6327857e-06,1.3472394e-05,-2.8690165e-06,-5.415892e-06,4.6702603e-06,-2.9413147e-06,3
3.3820459e-06,1.5175269e-06,1.361931e-06,-2.6081539e-08,-2.7468175e-06,1.389833e-06,-5.574144e-07,1.38130445e-05,-6.871274e-07,-2.898153e-06,3.830959e-06,-5.6211106e-06,3
4.7245903e-06,2.356481e-06,1.0262326e-06,6.450556e-07,-6.513464e-07,5.5064055e-07,1.7914123e-06,1.2139508e-05,-1.8373123e-07,9.623793e-07,1.6488634e-06,-7.7973555e-06,3
5.8992828e-06,2.6918883e-06,1.6976296e-06,3.0909493e-07,8.9823413e-07,1.5577907e-06,6.3222756e-06,1.281586e-05,1.5181796e-07,2.3051732e-06,-1.0367809e-06,-7.791557e-06,3
2.2063475e-06,1.85235e-06,2.704725e-06,4.7668448e-07,1.6115335e-06,2.3970892e-06,9.510346e-06,1.5506406e-05,-5.1972813e-07,1.4659271e-06,-1.3725341e-06,-6.1072637e-06,3
-1.9901356e-06,-1.6213296e-07,2.5368756e-06,2.4906153e-06,2.0729808e-06,1.8935956e-06,8.837885e-06,1.0811587e-05,-2.7019162e-06,9.623793e-07,6.4160173e-07,-3.415871e-06,3
-1.8225409e-06,1.6839144e-06,2.033328e-06,4.5045463e-06,1.8907751e-06,2.9007442e-06,3.1299433e-06,-7.143319e-06,-2.5342142e-06,2.9098243e-07,1.3129427e-06,-2.5708157e-06,3
-3.1215288e-07,6.047699e-06,3.5439714e-06,4.504286e-06,1.0794696e-06,4.2435895e-06,-7.277776e-06,-2.593747e-05,-1.6951143e-06,-4.4716103e-08,-7.0130324e-07,-4.4113463e-06,3
-1.9909007e-06,8.0615955e-06,4.3832174e-06,4.168329e-06,9.3082133e-07,4.5793413e-06,-1.8356892e-05,-3.7346254e-05,-1.5274095e-06,4.5883164e-07,-3.3869442e-06,-6.75542e-06,3
-2.6625567e-06,7.2220546e-06,6.9053414e-07,4.168069e-06,1.7345637e-06,6.257884e-06,-2.7253967e-05,-4.3551707e-05,-1.5275538e-06,-3.804146e-07,-2.3799048e-06,-7.9245465e-06,3
1.7012675e-06,9.571648e-06,-3.3378478e-06,4.503508e-06,2.0490022e-06,7.6007286e-06,-2.9437075e-05,-5.0932103e-05,3.1864417e-07,-3.2338517e-06,-3.006848e-08,-6.408082e-06,3
6.568636e-06,1.4774679e-05,-4.344943e-06,4.1675507e-06,1.6139817e-06,7.768628e-06,-2.356342e-05,-5.9151746e-05,3.5076373e-06,-1.2129862e-05,1.14482e-06,-3.7166694e-06,3
8.414718e-06,2.16562e-05,-1.6593552e-06,4.167292e-06,1.9351203e-06,8.272227e-06,-1.634697e-05,-6.032172e-05,5.521687e-06,-2.6732745e-05,1.4804655e-06,-4.0465393e-06,3
6.735965e-06,2.7027076e-05,1.5297803e-06,3.4956354e-06,2.5239408e-06,7.6008782e-06,-1.34946e-05,-5.242783e-05,3.843054e-06,-4.267842e-05,1.983958e-06,-5.3835024e-06,3
4.7215135e-06,2.9712364e-05,3.376122e-06,2.82398e-06,3.1101886e-06,6.929531e-06,-1.1985026e-05,-3.4630833e-05,1.828724e-06,-5.426002e-05,1.9839038e-06,-6.720462e-06,3
4.049853e-06,2.4340889e-05,3.2082726e-06,1.8166266e-06,2.1417181e-06,7.097429e-06,-7.1184677e-06,4.147318e-06,2.3321327e-06,-6.0134746e-05,3.0535767e-07,-1.2757197e-05,3
3.7138918e-06,4.19868e-06,1.0262326e-06,6.414246e-07,1.8466689e-06,6.59393e-06,9.7980006e-08,6.357093e-05,3.6747892e-06,-6.2484636e-05,-3.6609438e-07,-2.6011445e-05,3
3.7136278e-06,-2.4335992e-05,1.8698641e-07,8.090158e-07,7.2679944e-07,5.2511823e-06,1.0167865e-05,0.000112252186,2.1640092e-06,-6.147754e-05,8.0879664e-07,-3.72515e-05,3
4.888308e-06,-4.212831e-05,2.5368756e-06,8.0875816e-07,-6.848015e-07,5.251229e-06,2.5441079e-05,0.00012199243,-3.5386515e-07,-5.9966897e-05,1.8158387e-06,-4.026694e-05,3
9.252121e-06,-3.860378e-05,6.397408e-06,-1.9859529e-07,-1.4756698e-07,5.251276e-06,4.4406966e-05,9.782713e-05,1.4954819e-07,-5.593851e-05,6.4083997e-07,-3.79112e-05,3
1.6469372e-05,-2.2154856e-05,8.24375e-06,-1.988525e-07,1.3617341e-06,5.0834733e-06,6.3205014e-05,7.097623e-05,5.688439e-06,-4.8720995e-05,-2.3805007e-06,-3.3205568e-05,3
2.0665335e-05,-4.3631417e-06,8.579448e-06,8.079865e-07,2.6749583e-06,5.0835188e-06,7.9988866e-05,6.2588755e-05,1.2066577e-05,-3.865004e-05,-2.0448542e-06,-2.9339177e-05,3
1.982582e-05,7.3860015e-06,6.7331066e-06,-5.350643e-07,2.5747481e-06,5.251413e-06,9.375144e-05,6.645428e-05,1.5591278e-05,-2.6900594e-05,-1.0378138e-06,-2.5976331e-05,3
1.579717e-05,1.2589023e-05,6.9009557e-06,-1.0388679e-06,1.8433514e-06,4.9157597e-06,0.00010298207,5.8234662e-05,1.760534e-05,-1.48154495e-05,-8.7001825e-07,-2.2445634e-05,3
1.2775613e-05,1.896699e-05,1.478987e-05,-8.7127535e-07,1.1419918e-06,2.062366e-06,0.00010533089,2.7019698e-05,1.9283701e-05,-1.3875099e-06,-2.7164126e-06,-1.7739989e-05,3
9.586206e-06,2.6687747e-05,1.9153951e-05,-1.2072315e-06,-7.428411e-08,-1.9659713e-06,9.760875e-05,-5.8737596e-06,2.0290669e-05,1.3718922e-05,-3.3878619e-06,-1.1691546e-05,3
3.8790595e-06,2.8533781e-05,1.1432885e-05,-3.6824048e-07,-1.6782226e-06,-3.6444198e-06,7.5619435e-05,-1.5939717e-05,1.7772802e-05,2.6811162e-05,-3.6662985e-07,-5.6431004e-06,3
-6.5314384e-07,2.7022832e-05,8.583834e-07,4.7074974e-07,-2.2515728e-06,-5.65857e-06,3.7348724e-05,-1.4996835e-06,1.6765578e-05,3.5707173e-05,1.983207e-06,-2.951637e-06,3
-5.688894e-06,1.8126517e-05,-3.002149e-06,-1.2079988e-06,-1.3975598e-06,-7.840566e-06,-1.468561e-05,1.3611749e-05,2.163308e-05,4.5945977e-05,1.3117563e-06,-9.2320974e-08,3
-1.458518e-05,1.0055826e-06,-2.162903e-06,-2.7188962e-06,1.953807e-07,-1.05261115e-05,-6.5880704e-05,1.5295242e-05,2.6668431e-05,5.9206064e-05,-3.1088604e-08,1.4516444e-05,3
-2.6838448e-05,-1.5276102e-05,-1.6593552e-06,-2.5513013e-06,-9.420681e-07,-1.38830555e-05,-0.000103983555,2.2080055e-06,2.4318419e-05,7.246615e-05,-1.0382383e-06,4.1881758e-05,3
-3.472764e-05,-2.0815436e-05,-1.6593552e-06,-2.7194062e-06,-4.0895184e-06,-1.6904301e-05,-0.00012144095,-1.8935994e-05,2.2304106e-05,8.3376355e-05,-7.0259296e-07,7.159696e-05,3
-3.825275e-05,-1.5444572e-05,-5.3520384e-06,-5.2374e-06,-7.319048e-06,-2.0261246e-05,-0.000115567294,-4.9143848e-05,2.062549e-05,8.6901186e-05,-7.026455e-07,0.00010013722,3
-4.177786e-05,-5.709627e-06,-8.709023e-06,-5.7412017e-06,-9.012837e-06,-2.0932603e-05,-8.6530454e-05,-0.00010016501,1.8611177e-05,8.119431e-05,-4.731079e-06,0.000108535576,3
-4.02675e-05,-5.0661225e-07,-8.037627e-06,-2.2166219e-06,-6.132655e-06,-1.6232785e-05,-4.4233522e-05,-0.00016293561,1.3743429e-05,6.9780566e-05,-6.4096234e-06,8.6888926e-05,3
-2.7511238e-05,-5.7102516e-06,-5.3520384e-06,3.8256962e-06,9.8731505e-08,-1.1700814e-05,-1.3350336e-05,-0.00023242019,8.372134e-06,5.8534668e-05,-5.7382795e-06,5.4499924e-05,3
-1.5426374e-05,-1.8299257e-05,-4.344943e-06,5.671784e-06,3.4202171e-06,-1.069368e-05,-7.308841e-06,-0.0002829378,3.5043875e-06,4.728877e-05,-6.0740294e-06,2.9999836e-05,3
-1.1566124e-05,-2.6356334e-05,-2.3307523e-06,2.6502437e-06,-1.1347662e-06,-1.354708e-05,-1.6205926e-05,-0.00024231325,-5.0560407e-06,3.6714267e-05,-7.2490257e-06,1.9095542e-05,3
-8.377271e-06,-2.199257e-05,3.0404233e-06,-3.5597857e-08,-7.611193e-06,-1.6904027e-05,-2.2753122e-05,-9.560801e-05,-1.6973454e-05,3.218234e-05,-6.2419826e-06,1.1548237e-05,3
-5.3562685e-06,-1.3936121e-05,5.3903127e-06,8.033959e-07,-7.2891125e-06,-1.8246783e-05,-2.1075706e-05,4.1697684e-05,-2.805162e-05,3.218234e-05,-3.7242953e-06,4.3366326e-06,3
-5.356553e-06,-1.4272135e-05,1.1940818e-06,3.992278e-06,-1.6665482e-06,-1.757535e-05,-1.26843215e-05,8.1986516e-05,-3.7786987e-05,3.117524e-05,-2.213705e-06,2.1605085e-06,3
-1.1399413e-05,-1.8804381e-05,-6.6948323e-06,4.663423e-06,-9.1225684e-07,-1.3882631e-05,-3.9572387e-06,6.033899e-05,-4.1815485e-05,2.5132671e-05,-2.3816058e-06,1.6628803e-06,3
-2.5331186e-05,-1.4440618e-05,-9.044722e-06,1.1383365e-06,-2.3828409e-06,-8.511418e-06,1.4128616e-06,3.9195005e-05,-3.5269477e-05,1.623666e-05,-4.0601503e-06,4.938562e-07,3
-4.0605755e-05,-3.530734e-06,-4.6806417e-06,-2.051052e-06,-1.168287e-06,-4.147303e-06,6.782958e-06,4.121422e-05,-1.9323914e-05,1.1536881e-05,-4.228051e-06,3.31932e-07,3
-5.235549e-05,6.651777e-07,-6.359134e-06,-5.4066106e-07,-2.746605e-07,-7.902835e-07,1.4167245e-05,5.7836325e-05,-6.9031803e-06,1.0361936e-05,-2.717458e-06,3.378598e-07,3
-6.158749e-05,-6.5526588e-06,-1.7605033e-05,2.983921e-06,-1.0136159e-06,1.5596399e-06,1.9873043e-05,7.328348e-05,-6.3997413e-06,6.6692533e-06,-1.0390174e-06,-1.5975647e-07,3
-6.4105516e-05,-1.712748e-05,-2.5829646e-05,3.8229155e-06,-9.799747e-07,2.7346189e-06,2.1382606e-05,7.647764e-05,-1.2945971e-05,7.9453014e-07,-3.197155e-08,-2.3358627e-06,3
-3.255015e-05,-1.1253077e-05,-2.0962018e-05,2.6477187e-06,-3.1099512e-07,6.5951854e-06,2.3395718e-05,7.597912e-05,-2.5702622e-05,-3.4017007e-06,-1.0391196e-06,-4.008419e-06,3
4.063183e-05,1.0567004e-05,-6.359134e-06,3.1510153e-06,1.5062473e-06,1.12949965e-05,2.9605058e-05,8.521586e-05,-4.315905e-05,-8.101479e-06,-1.5427175e-06,-7.695163e-06,3
0.00010726768,3.0372892e-05,6.0617094e-06,4.661408e-06,2.5817624e-06,1.330922e-05,4.1521278e-05,9.57954e-05,-5.692279e-05,-1.14584645e-05,-2.8855625e-06,-1.0878356e-05,3
0.000113142116,3.859718e-05,1.042579e-05,4.8290067e-06,3.0245417e-06,1.3980649e-05,5.14233e-05,9.1604204e-05,-6.0279883e-05,-1.0283519e-05,-4.5641063e-06,-1.0201013e-05,3
7.017241e-05,3.9100407e-05,9.7543925e-06,2.6467148e-06,3.833292e-06,1.4819926e-05,4.772954e-05,6.424982e-05,-5.0209033e-05,-8.437179e-06,-5.2355526e-06,-8.516573e-06,3
2.6867014e-05,4.0778577e-05,5.054614e-06,-7.105196e-07,3.9608594e-06,1.34771635e-05,2.8929342e-05,9.703848e-06,-2.8053038e-05,-6.422987e-06,-4.228509e-06,-8.846319e-06,3
7.731903e-06,4.2960295e-05,-8.373325e-06,-8.786188e-07,2.8605511e-06,1.1127304e-05,5.0936733e-06,-6.347338e-05,-7.407683e-06,-1.8910578e-06,-1.7108198e-06,-1.0854556e-05,3
5.0460185e-06,4.228857e-05,-2.482255e-05,-2.074728e-07,7.7526596e-07,1.0959485e-05,-1.5385016e-05,-0.00011331957,4.6773607e-06,4.8229117e-06,1.3547181e-07,-1.4709132e-05,3
7.563459e-06,3.5574274e-05,-3.187222e-05,6.315244e-07,6.22816e-07,1.33094045e-05,-2.6631997e-05,-0.00010122938,9.544889e-06,1.170473e-05,-7.0382646e-07,-1.6549513e-05,3
6.5560644e-06,2.264956e-05,-2.045847e-05,-3.7582112e-07,3.223932e-06,1.5155775e-05,-3.3850596e-05,-5.6912133e-05,7.1948994e-06,1.3383224e-05,-2.2145196e-06,-1.4361511e-05,3
3.0309304e-06,-2.3603043e-06,7.740202e-06,-1.0474664e-06,6.7848123e-06,1.5323652e-05,-4.0901345e-05,-2.7533473e-05,2.3271728e-06,9.6905405e-06,3.0317034e-07,-1.0159314e-05,3
2.3592327e-06,-2.7370168e-05,3.7617367e-05,-8.7986655e-07,7.833318e-06,1.4652283e-05,-4.3084467e-05,-1.3093391e-05,8.164328e-07,6.266809e-07,3.4922555e-06,-8.810552e-06,3
3.3660258e-06,-4.415542e-05,5.0038212e-05,-2.0871944e-07,6.11619e-06,1.297382e-05,-3.9225015e-05,5.0393746e-06,2.1591295e-06,-1.263341e-05,5.0028484e-06,-9.475978e-06,3
5.3799154e-06,-5.6408742e-05,3.6274574e-05,-1.5517621e-06,3.2465273e-06,1.1127505e-05,-3.3183525e-05,3.055751e-05,2.4947326e-06,-2.2872213e-05,3.827855e-06,-8.798606e-06,3
7.729501e-06,-6.362659e-05,8.747297e-06,-3.5662015e-06,-2.5281275e-07,8.609793e-06,-2.9156228e-05,5.204726e-05,-1.0301954e-06,-2.2704362e-05,2.6528592e-06,-6.7784395e-06,3
8.064895e-06,-6.0941333e-05,-1.1058912e-05,-4.069997e-06,-2.4120875e-06,5.2528353e-06,-2.5464627e-05,6.7494446e-05,-7.57641e-06,-1.9850926e-05,3.3242075e-06,-5.765364e-06,3
6.7217957e-06,-5.25492e-05,-2.1801265e-05,-3.2309997e-06,-4.3337752e-07,-1.1831403e-07,-1.925529e-05,7.941679e-05,-6.569407e-06,-2.0018775e-05,4.666952e-06,-6.4307787e-06,3
5.8822434e-06,-4.147148e-05,-3.606845e-05,-1.8884525e-06,2.8987204e-06,-2.1324797e-06,-9.688965e-06,7.95897e-05,2.830058e-06,-2.0186624e-05,6.009696e-06,-7.767587e-06,3
8.063977e-06,-2.5526135e-05,-5.2685526e-05,-1.0494531e-06,4.1445437e-06,2.174343e-07,-9.618892e-07,6.8348854e-05,1.3908017e-05,-1.3808353e-05,4.6668533e-06,-6.5866543e-06,3
1.1588502e-05,-1.2602075e-05,-6.0574443e-05,-7.1400245e-07,2.9569333e-06,5.531568e-07,1.8904648e-06,5.475812e-05,2.1628992e-05,-4.408796e-06,2.4847632e-06,-4.5664724e-06,3
1.2763138e-05,-5.888439e-06,-6.023874e-05,-1.3856476e-06,2.5351706e-06,-2.4681042e-06,5.0785166e-06,4.603502e-05,2.1796752e-05,-1.2196608e-06,1.3097692e-06,-3.5533837e-06,3
9.573693e-06,-4.5459783e-06,-5.73853e-05,-4.0714813e-06,1.1076304e-06,-5.8250675e-06,1.8673218e-05,4.0501054e-05,1.843968e-05,-1.0451368e-05,1.9811182e-06,-3.7152365e-06,3
6.0485486e-06,-4.3784635e-06,-4.462876e-05,-5.078824e-06,-1.9367434e-07,-7.167837e-06,3.8814047e-05,2.9260218e-05,1.5082607e-05,-2.4047156e-05,1.9810693e-06,-5.219881e-06,3
5.0411422e-06,-2.7003052e-06,-2.3479757e-05,-3.7362765e-06,1.0198287e-06,-8.510607e-06,5.0394552e-05,1.5165944e-05,1.1221989e-05,-3.3111017e-05,1.9810207e-06,-6.724523e-06,3
1.348147e-06,-4.3791338e-06,1.9137174e-08,-4.0722207e-06,1.5770866e-06,-1.0692626e-05,4.7540034e-05,-3.292408e-06,5.1793313e-06,-3.3278866e-05,1.309574e-06,-6.047121e-06,3
-4.359041e-06,-1.3275479e-05,5.3903127e-06,-8.772246e-06,-1.0069825e-06,-1.2874646e-05,3.6964444e-05,-2.7289785e-05,4.7946816e-07,-2.6061347e-05,-1.0403636e-06,-4.0269233e-06,3
-7.71634e-06,-2.1332578e-05,-1.6597938e-05,-1.3975819e-05,-6.176724e-06,-1.4720965e-05,2.9410141e-05,-4.8265872e-05,3.83637e-06,-1.8172434e-05,-2.215357e-06,-2.8459692e-06,3
-7.380955e-06,-2.284356e-05,-3.0529423e-05,-1.4311762e-05,-9.87286e-06,-1.37138495e-05,2.3534334e-05,-5.2792733e-05,8.703915e-06,-1.1122766e-05,-3.3903484e-06,-2.3364087e-06,3
-6.038479e-06,-1.4283586e-05,-1.8108582e-05,-8.605133e-06,-6.880233e-06,-1.2203184e-05,1.4805086e-05,-4.019897e-05,1.0382327e-05,-7.9336305e-06,-4.9010405e-06,-9.875985e-07,3
-4.8638494e-06,6.86508e-06,1.361931e-06,-1.8914083e-06,-2.4469725e-06,-1.2035315e-05,3.2224036e-06,-1.9884143e-05,6.689563e-06,-1.263341e-05,-4.9010887e-06,8.647604e-07,3
-3.5213732e-06,3.4559864e-05,9.5865435e-06,1.8010298e-06,-2.6763037e-06,-1.153175e-05,-4.6675973e-06,-1.7193484e-05,4.790617e-07,-2.1529419e-05,-3.8940407e-06,1.2064789e-06,3
-2.3467476e-06,4.8491012e-05,1.2104282e-05,3.1435793e-06,-4.721554e-06,-8.174746e-06,-5.1722313e-06,-3.5316127e-05,-4.220795e-06,-2.9250483e-05,-2.7191447e-06,1.3803522e-06,3
-1.8435178e-06,4.647648e-05,1.9825347e-05,5.325375e-06,-2.9144815e-06,-5.48914e-06,-1.4806354e-06,-4.991394e-05,-5.0601184e-06,-3.3614564e-05,-1.5442477e-06,2.561322e-06,3
-2.683086e-06,3.875507e-05,3.039985e-05,8.178568e-06,6.851362e-07,-4.6498776e-06,-8.1032687e-07,-4.7894675e-05,-3.885251e-06,-2.8914785e-05,-2.2156935e-06,3.0708995e-06,3
-5.368993e-06,2.801238e-05,3.694597e-05,1.08639115e-05,2.7947713e-06,-4.985558e-06,-2.4899084e-06,-2.8083385e-05,-1.926434e-07,-2.0186624e-05,-3.222835e-06,4.0840246e-06,3
-1.2083285e-05,1.5423348e-05,3.610672e-05,1.0695819e-05,1.3001107e-06,-6.9997313e-06,-2.3231435e-06,-2.1533366e-07,6.521252e-06,-2.0186624e-05,-2.3836376e-06,6.104249e-06,3
-1.8797578e-05,5.1842e-06,3.0232e-05,7.5064404e-06,-1.9723564e-06,-8.174658e-06,5.0611343e-06,2.3288638e-05,9.206767e-06,-2.7404141e-05,-1.040891e-06,7.956626e-06,3
-2.0140695e-05,-1.3622646e-06,2.2846634e-05,4.4849103e-06,-3.7841025e-06,-9.181741e-06,1.5802398e-05,4.4107022e-05,5.849709e-06,-3.4789507e-05,1.1411016e-06,7.4591185e-06,3
-1.8798226e-05,-4.2160455e-06,2.8385659e-05,4.1489693e-06,-2.4002306e-06,-9.1817255e-06,1.8486893e-05,6.610036e-05,4.5068437e-06,-3.865004e-05,1.6446035e-06,5.618819e-06,3
-1.5105868e-05,-1.5308024e-06,4.4331337e-05,5.155822e-06,2.4852864e-07,-6.8318195e-06,1.2107536e-05,8.50724e-05,8.870853e-06,-3.831434e-05,-1.7124287e-06,4.114219e-06,3
-6.7137325e-06,6.0220673e-06,5.473799e-05,3.141388e-06,2.4134242e-06,-3.1391219e-06,7.406667e-06,8.960941e-05,9.038632e-06,-3.3950262e-05,-3.7266668e-06,3.1131717e-06,3
2.3497994e-06,1.357494e-05,5.0038212e-05,7.912568e-07,4.619654e-06,1.2249733e-06,7.2377284e-06,7.232603e-05,1.4255384e-07,-2.8914785e-05,-2.7196186e-06,2.7835208e-06,3
6.3778534e-06,2.045641e-05,3.5938872e-05,-5.517793e-07,4.979952e-06,3.2391779e-06,6.733092e-06,4.1782558e-05,-1.4292549e-05,-2.6564896e-05,-1.7125695e-06,3.1252725e-06,3
7.38462e-06,2.5995088e-05,2.0496744e-05,-2.5662112e-06,4.944505e-06,4.5819847e-06,7.0677006e-06,1.1910478e-05,-2.5874213e-05,-2.4718556e-05,-1.5447672e-06,6.3204607e-06,3
7.3842903e-06,2.5491194e-05,5.7260113e-06,-4.9163436e-06,3.4071006e-06,6.5961885e-06,9.248652e-06,-1.1247628e-05,-2.973481e-05,-1.9347379e-05,-2.0483608e-06,1.2369092e-05,3
9.062452e-06,1.4916343e-05,-1.3073103e-05,-5.75583e-06,-8.8489116e-07,5.924802e-06,1.3443792e-05,-4.346959e-05,-2.7720687e-05,-1.12906155e-05,-2.7198055e-06,1.5899985e-05,3
1.1747708e-05,-3.2117248e-06,-4.378951e-05,-6.763168e-06,-3.4143366e-06,3.2392275e-06,1.9317426e-05,-9.851905e-05,-2.302097e-05,-2.5624547e-06,-3.5590967e-06,1.1877663e-05,3
1.1411677e-05,-2.5032476e-05,-8.5583975e-05,-8.777599e-06,-2.998632e-06,1.8964437e-06,2.4183963e-05,-0.00015910754,-1.748201e-05,4.6550626e-06,-2.7198982e-06,2.819869e-06,3
7.3829624e-06,-4.8699567e-05,-0.0001116006,-9.952783e-06,-7.3325907e-07,3.0714004e-06,2.4686418e-05,-0.00017370532,-1.2950142e-05,1.0194088e-05,-1.2093013e-06,-1.0434153e-05,3
4.3613422e-06,-5.8938724e-05,-0.00010304029,-8.106682e-06,3.1701868e-06,4.582054e-06,1.7467812e-05,-0.000107231936,-1.1607408e-05,1.3718922e-05,-3.7010147e-07,-2.5870215e-05,3
3.353911e-06,-4.248985e-05,-6.779196e-05,-3.0714464e-06,5.5575697e-06,5.9248555e-06,1.3531951e-06,-1.6084701e-05,-1.36216595e-05,1.8418701e-05,3.012505e-07,-3.778144e-05,3
5.001383e-07,-1.5130775e-05,-2.3479757e-05,3.6422825e-06,4.7713916e-06,5.421318e-06,-2.1643244e-05,1.8161641e-05,-1.6978704e-05,2.5804067e-05,3.012046e-07,-4.2139443e-05,3
-4.1999774e-06,-5.28244e-07,1.277568e-05,9.516767e-06,3.867021e-06,2.5678887e-06,-4.917161e-05,3.2281562e-06,-1.6978762e-05,3.1678792e-05,-3.4539195e-08,-3.7433587e-05,3
-7.389449e-06,-3.3820343e-06,3.3253287e-05,1.2202116e-05,4.000454e-08,-1.628333e-06,-7.065741e-05,-1.38873675e-05,-1.1775492e-05,3.4532226e-05,-3.702849e-07,-3.0042143e-05,3
-8.900431e-06,-1.0599906e-05,3.694597e-05,9.516289e-06,-4.6642194e-06,-5.3210083e-06,-7.451903e-05,-1.6903554e-05,-4.8937304e-06,3.3189433e-05,-2.0248049e-07,-2.7854021e-05,3
-9.572169e-06,-1.2110903e-05,3.0232e-05,5.3198182e-06,-6.538812e-06,-5.8245496e-06,-6.444917e-05,-1.1527278e-05,3.0954044e-07,3.151094e-05,6.3672e-07,-2.8687184e-05,3
-7.5583157e-06,-7.915028e-06,2.7210714e-05,4.8160323e-06,-5.1260986e-06,-4.3138975e-06,-4.9679526e-05,-7.9973415e-06,4.7733505e-07,3.3189433e-05,9.723726e-07,-2.616336e-05,3
-1.6839338e-06,-1.5371128e-06,3.3924684e-05,6.662135e-06,-2.6704984e-06,-2.1318513e-06,-3.172075e-05,-9.670732e-06,-6.2366876e-06,3.4532226e-05,3.0093133e-07,-2.2296737e-05,3
6.0367884e-06,1.0883375e-05,4.298854e-05,8.508238e-06,1.512852e-07,1.2251397e-06,-1.3426275e-05,-1.6715296e-05,-1.5636297e-05,3.184664e-05,-7.0621087e-07,-1.7590868e-05,3
1.0736225e-05,3.488546e-05,4.282069e-05,7.668754e-06,-2.2270295e-07,3.2393364e-06,-3.6921124e-06,-2.7620392e-05,-1.6979142e-05,2.7818258e-05,3.0084104e-07,-1.0535106e-05,3
1.0568032e-05,5.7209047e-05,3.3924684e-05,5.486476e-06,-3.6725446e-06,4.5821353e-06,-4.5324514e-06,-2.9629477e-05,-7.243938e-06,2.6475464e-05,2.314986e-06,-3.647192e-06,3
6.707155e-06,5.9894282e-05,2.2343085e-05,4.143445e-06,-3.9141282e-06,6.932029e-06,-8.561926e-06,-1.0657405e-05,1.0044484e-05,2.6811162e-05,3.6577362e-06,2.1943933e-07,3
4.6926193e-06,4.428394e-05,1.6468362e-05,5.4860006e-06,9.700145e-07,9.953319e-06,-1.1248608e-05,1.8217772e-05,2.3304525e-05,2.748256e-05,6.0075795e-06,-7.327676e-06,3
7.713559e-06,3.0016397e-05,1.4622021e-05,7.835653e-06,6.2590634e-06,1.1799663e-05,-1.30960425e-05,3.3497163e-05,2.7165011e-05,2.7650409e-05,7.3503297e-06,-2.4274346e-05,3
1.2077292e-05,2.3469916e-05,9.5865435e-06,8.842512e-06,7.299299e-06,1.2638913e-05,-1.4943478e-05,3.2830874e-05,2.6661415e-05,2.6979013e-05,7.350285e-06,-3.6689085e-05,3
1.5601778e-05,2.0616118e-05,3.5439714e-06,9.681521e-06,7.0042875e-06,1.1967519e-05,-1.4944572e-05,3.1157495e-05,2.2632988e-05,2.3789877e-05,7.3502406e-06,-3.9032868e-05,3
1.8287017e-05,1.8433719e-05,1.0262326e-06,1.1527627e-05,7.808563e-06,1.17996715e-05,-1.3435022e-05,3.5526686e-05,1.675822e-05,1.7075907e-05,7.853743e-06,-3.8691058e-05,3
1.9461613e-05,1.3565729e-05,-1.4871206e-07,1.0184597e-05,9.8047e-06,1.1296126e-05,-8.0649415e-06,4.6442e-05,1.6590328e-05,1.3718922e-05,6.8466043e-06,-4.237763e-05,3
1.6775673e-05,5.005055e-06,-4.177094e-06,4.813186e-06,1.0666781e-05,8.442691e-06,2.6763153e-06,6.323204e-05,2.0954365e-05,1.4390319e-05,3.825274e-06,-5.0260427e-05,3
1.308264e-05,-4.7305653e-06,-5.01634e-06,-5.582258e-07,8.846904e-06,5.4214047e-06,1.4088969e-05,8.2875515e-05,2.2632816e-05,1.3718922e-05,1.978888e-06,-5.965387e-05,3
1.0732399e-05,-1.0269953e-05,-3.1656128e-07,-3.915446e-06,4.447427e-06,5.5892538e-06,1.8955503e-05,9.160879e-05,1.9275789e-05,7.3406504e-06,2.9859389e-06,-6.6865265e-05,3
1.1403442e-05,-1.1613111e-05,6.397408e-06,-5.594173e-06,-1.131767e-07,6.260651e-06,1.8786555e-05,8.187865e-05,1.5247368e-05,-2.3946054e-06,3.321594e-06,-6.736269e-05,3
1.25780325e-05,-1.4299064e-05,1.3279227e-05,-5.7622574e-06,-8.7910604e-07,5.924951e-06,1.542848e-05,5.804918e-05,1.289744e-05,-1.0619218e-05,1.8109074e-06,-6.265679e-05,3
1.19062815e-05,-1.8831359e-05,1.8146855e-05,-4.084e-06,-1.225541e-06,7.267745e-06,1.1063302e-05,2.9519924e-05,1.1218909e-05,-1.5990394e-05,6.3591875e-07,-5.7783036e-05,3
1.0059584e-05,-1.9503123e-05,2.4021578e-05,-1.9021943e-06,-2.4901296e-06,7.2677435e-06,8.376621e-06,8.376038e-06,6.183395e-06,-1.9515228e-05,-1.2104667e-06,-5.2237883e-05,3
1.0730625e-05,-1.5475107e-05,3.12391e-05,1.4545565e-06,-2.9101e-06,5.7570974e-06,9.046922e-06,-3.4700057e-07,1.4078628e-07,-2.102587e-05,-1.0426612e-06,-3.8971662e-05,3
1.2744458e-05,-7.250861e-06,3.5771023e-05,5.4827037e-06,-1.8586725e-06,4.2464517e-06,8.877977e-06,-1.1811255e-06,-1.537741e-06,-2.354361e-05,-7.070065e-07,-1.513094e-05,3
1.1401306e-05,1.3413771e-07,3.795307e-05,7.832359e-06,5.2763414e-07,4.582149e-06,6.0234433e-06,-4.3651394e-06,-3.551966e-06,-2.4886405e-05,-1.3784457e-06,2.4823314e-05,3
5.694073e-06,7.1834374e-06,4.282069e-05,9.17492e-06,2.0907285e-06,7.939128e-06,3.0010601e-06,-7.717001e-06,-5.0626422e-06,-2.4215007e-05,-7.0709285e-07,7.3841424e-05,3
-1.0202567e-06,1.1211449e-05,5.1381005e-05,1.0349631e-05,3.201735e-06,9.953316e-06,2.328568e-06,-8.383274e-06,-3.0484846e-06,-2.2704362e-05,9.713572e-07,0.00011295645,3
-6.7274914e-06,8.8611905e-06,4.869542e-05,1.00137e-05,4.5779652e-06,7.93912e-06,1.9917736e-06,-1.6434913e-05,4.169002e-06,-1.8172434e-05,1.3070122e-06,0.00013965061,3
-1.1091932e-05,3.1539473e-06,3.0232e-05,7.4957293e-06,3.7333211e-06,6.596323e-06,-6.949118e-07,-4.009653e-05,8.197353e-06,-1.1626314e-05,8.034225e-07,0.00016281995,3
-1.39457325e-05,-8.748064e-07,9.418694e-06,3.9706624e-06,2.0269563e-06,5.253523e-06,-6.7385795e-06,-8.47393e-05,7.525927e-06,-7.430083e-06,6.355308e-07,0.00017826822,3
-2.0827913e-05,-3.2250668e-06,-2.8342997e-06,-2.25801e-07,-4.2014224e-07,1.560834e-06,-1.1607305e-05,-0.00014952398,4.504612e-06,-3.7373993e-06,-3.59078e-08,0.00017239965,3
-3.1570627e-05,-7.757369e-06,-9.548269e-06,-4.925812e-06,-3.672019e-06,-2.8032532e-06,-1.6643879e-05,-0.00018493504,4.7620279e-07,1.6337763e-06,-1.7144433e-06,0.00014571777,3
-3.660647e-05,-1.3968162e-05,-1.844428e-05,-1.029722e-05,-7.061279e-06,-6.160245e-06,-1.9834111e-05,-0.0001446461,-3.5522048e-06,6.6692533e-06,-2.3858836e-06,0.000110979134,3
-3.0228566e-05,-1.547918e-05,-2.3311906e-05,-1.3990134e-05,-6.7629308e-06,-9.349388e-06,-1.6646074e-05,-7.21301e-05,-7.077065e-06,9.858389e-06,-1.7145279e-06,8.597575e-05,3
-1.6968841e-05,-8.597734e-06,-1.6262238e-05,-1.3318967e-05,-4.6734713e-06,-9.181547e-06,-9.597503e-06,-2.848416e-05,-1.0266224e-05,6.6692533e-06,8.031679e-07,7.7253746e-05,3
-6.0590114e-06,-1.5484407e-06,-9.044722e-06,-1.080146e-05,-3.237912e-06,-4.481776e-06,-8.591504e-06,-1.6729582e-05,-9.259154e-06,-2.730304e-06,2.8173158e-06,7.625281e-05,3
-8.5605257e-07,-3.8171645e-08,-1.592654e-05,-8.7875e-06,-7.0317753e-07,1.2250911e-06,-1.6481517e-05,-1.638875e-05,-4.559396e-06,-1.14584645e-05,3.6565218e-06,7.189489e-05,3
-3.5287275e-07,-3.2276832e-06,-3.2375767e-05,-1.14733175e-05,5.58755e-07,4.582067e-06,-2.5042926e-05,-1.7726412e-05,-3.6318775e-07,-1.5822545e-05,1.977987e-06,6.11587e-05,3
-3.532427e-07,-6.5850445e-06,-4.0768227e-05,-1.6341175e-05,-3.1022457e-06,5.2534533e-06,-2.370123e-05,-1.4028595e-05,-1.0346045e-06,-2.0690171e-05,-7.0764366e-07,4.102295e-05,3
-8.5716255e-07,-7.0889687e-06,-3.757909e-05,-2.0369787e-05,-8.265334e-06,1.7286092e-06,-1.648481e-05,-6.302396e-06,-7.412896e-06,-2.3711458e-05,-1.3790814e-06,1.5516036e-05,3
1.1566577e-06,-5.9144013e-06,-3.4893503e-05,-2.2384209e-05,-1.2326778e-05,-1.7962354e-06,-8.429144e-06,6.459282e-06,-1.3287638e-05,-2.1193722e-05,-2.0417785e-07,-2.605513e-06,3
5.856063e-06,-4.4041362e-06,-3.9593284e-05,-2.2720136e-05,-1.4359919e-05,-3.4747384e-06,4.9976975e-06,2.408859e-05,-1.21127105e-05,-1.5486845e-05,-3.7206928e-07,-9.984708e-06,3
1.1394715e-05,7.988113e-07,-3.8586186e-05,-2.0034779e-05,-1.0310113e-05,-1.796258e-06,2.3627863e-05,3.4332526e-05,-3.3845677e-06,-9.108576e-06,-1.8827526e-06,-2.0888736e-05,3
1.4415627e-05,8.1838e-06,-2.8850933e-05,-1.6678021e-05,-3.7356276e-06,-7.8917395e-07,4.4943616e-05,3.0141435e-05,2.8258385e-06,-4.408796e-06,-3.561286e-06,-3.7667487e-05,3
1.49188e-05,1.0869007e-05,-1.7772882e-05,-1.2649869e-05,-2.4612459e-07,-1.4605844e-06,6.2734536e-05,1.8900673e-05,-2.7132014e-06,-3.4017007e-06,-2.889931e-06,-4.8235812e-05,3
1.5254122e-05,7.5116423e-06,-1.07232145e-05,-8.118167e-06,3.9464376e-07,-2.2998424e-06,6.8104615e-05,1.084905e-05,-1.31198685e-05,-3.4017007e-06,-2.386425e-06,-4.8901027e-05,3
1.3910952e-05,5.8327687e-06,-7.701928e-06,-4.5935612e-06,8.04908e-07,-2.1320068e-06,6.1725244e-05,1.2196983e-05,-1.8658906e-05,-2.0589068e-06,-2.2186168e-06,-4.3523673e-05,3
8.875097e-06,8.685825e-06,-5.3520384e-06,-2.915298e-06,2.8093443e-06,-9.570776e-07,4.9639002e-05,2.193738e-05,-1.46305365e-05,-7.161131e-07,-8.758636e-07,-3.646782e-05,3
-3.3782758e-06,1.137103e-05,-5.01634e-06,-1.2370338e-06,3.2214211e-06,1.057101e-06,4.359533e-05,3.8223898e-05,-6.573783e-06,2.9098243e-07,9.704377e-07,-3.2097556e-05,3
-2.4863359e-05,1.1874196e-05,-7.1983804e-06,1.7840259e-06,2.130316e-06,3.5748242e-06,4.0237246e-05,5.5181812e-05,1.4017574e-07,1.8016256e-06,4.6685014e-07,-3.343416e-05,3
-5.054467e-05,1.0866717e-05,-1.0051817e-05,2.6230448e-06,2.0082146e-06,4.5819047e-06,3.016519e-05,6.492221e-05,5.343493e-06,4.487213e-06,-2.3866282e-06,-3.611356e-05,3
-7.723308e-05,7.845047e-06,-1.2233857e-05,2.119271e-06,1.2042985e-06,2.231998e-06,9.350788e-06,6.173822e-05,6.5184295e-06,8.012047e-06,-3.5616117e-06,-3.5100275e-05,3
-0.00011499954,-1.2191966e-06,-1.2737405e-05,7.762502e-07,-2.5448608e-07,-3.1391933e-06,-1.3477807e-05,5.083316e-05,5.0077792e-06,8.683444e-06,-5.072296e-06,-2.905151e-05,3
-0.00014068086,-1.028344e-05,-1.3408802e-05,-2.310722e-07,-1.4941027e-07,-1.0860275e-05,-2.9088887e-05,4.2110147e-05,6.6862654e-06,6.333555e-06,-6.41513e-06,-1.7799417e-05,3
-9.536195e-05,-3.905554e-06,-1.1058912e-05,1.2793456e-06,2.905224e-06,-1.2874484e-05,-2.841859e-05,5.16827e-05,1.0043244e-05,7.3406504e-06,-4.4009803e-06,2.5165382e-06,3
3.4217283e-05,1.4725327e-05,-1.4915059e-06,5.978898e-06,8.437937e-06,-5.992683e-06,-1.2474013e-05,7.736877e-05,1.0043241e-05,1.4054621e-05,-3.6938086e-08,2.8707218e-05,3
0.00015540404,2.1438911e-05,1.1097187e-05,1.1685546e-05,1.3278042e-05,1.3926671e-06,2.8142952e-07,9.449455e-05,6.518403e-06,1.9257946e-05,1.9772122e-06,4.818393e-05,3
0.00017017439,2.303707e-06,1.8818251e-05,1.45387585e-05,1.2342282e-05,2.2318934e-06,7.8387654e-07,8.560368e-05,2.490019e-06,1.7747303e-05,1.9771724e-06,5.087572e-05,3
0.00010034873,-2.1699121e-05,2.1168142e-05,1.4706382e-05,9.257711e-06,-2.3000537e-06,-3.0777555e-06,6.127069e-05,3.1614143e-06,1.25439765e-05,1.3057347e-06,3.8461083e-05,3
3.4383585e-05,-2.9084877e-05,1.8650402e-05,1.2859816e-05,7.3784427e-06,-4.649964e-06,-1.7360597e-06,4.0126833e-05,4.8399065e-06,9.019142e-06,9.699972e-07,1.7318283e-05,3
1.2562796e-05,-2.1699898e-05,1.5293417e-05,1.0341852e-05,6.6705993e-06,-3.4750383e-06,-5.866897e-08,2.3682756e-05,5.8470027e-06,8.347745e-06,1.8092048e-06,-5.503007e-06,3
1.5080145e-05,-1.1965032e-05,1.042579e-05,7.82389e-06,5.235562e-06,-5.3214007e-06,-7.7808345e-06,1.8901332e-07,5.5113055e-06,1.4390319e-05,1.9770146e-06,-2.429591e-05,3
1.5919002e-05,-8.104889e-06,4.2153683e-06,4.634531e-06,2.473527e-06,-7.8391595e-06,-1.6845794e-05,-2.4647523e-05,4.504213e-06,2.4461273e-05,2.4805224e-06,-3.4696353e-05,3
1.03795865e-05,-7.2660337e-06,-1.3236568e-06,2.620115e-06,-8.660357e-07,-9.685524e-06,-1.6511196e-05,-3.1020645e-05,1.6507793e-06,3.184664e-05,1.9769363e-06,-4.073271e-05,3
4.0009227e-06,-7.266425e-06,-5.687737e-06,1.1092495e-06,-1.9526665e-06,-9.517697e-06,-7.448438e-06,-2.2119484e-05,1.4829336e-06,3.6714267e-05,-1.0443897e-06,-4.509058e-05,3
-3.6354896e-07,-8.94531e-06,-8.037627e-06,1.0192926e-07,-2.5938355e-06,-8.174923e-06,3.9642096e-06,-2.1275086e-05,1.8186381e-06,4.1917596e-05,-4.2335646e-06,-4.8777045e-05,3
-1.3710384e-06,-1.0456345e-05,-5.519888e-06,-5.6968975e-07,-4.064746e-06,-8.846347e-06,1.2523422e-05,-2.7816053e-05,2.1543426e-06,4.460318e-05,-4.4014523e-06,-5.162426e-05,3
2.6569494e-06,-5.9248086e-06,1.361931e-06,-2.4162534e-06,-4.7672515e-06,-1.052486e-05,1.3361567e-05,-3.3517776e-05,1.1472545e-06,4.6617373e-05,-1.380204e-06,-4.9771697e-05,3
7.859881e-06,-2.1832722e-07,1.0262326e-06,-3.591422e-06,-4.283539e-06,-1.0860583e-05,9.83563e-06,-3.5694662e-05,-1.0347767e-06,5.2324245e-05,1.3053444e-06,-4.1708714e-05,3
1.0712922e-05,8.00589e-06,-1.0219666e-05,-2.0810003e-06,-3.4243317e-06,-1.018921e-05,9.666681e-06,-1.9240282e-05,-4.3917526e-06,5.2827796e-05,9.69608e-07,-3.2302934e-05,3
9.201882e-06,2.7643857e-05,-1.609439e-05,-7.3842824e-07,-3.5618853e-06,-1.0860632e-05,1.402966e-05,2.289503e-05,-2.8811003e-06,4.1246196e-05,-1.0446213e-06,-2.7932625e-05,3
1.3125705e-06,4.0903553e-05,-1.08910635e-05,1.2755411e-06,-2.4221877e-06,-1.0524957e-05,2.191747e-05,7.1072915e-05,4.00073e-06,2.1272137e-05,-1.3803575e-06,-2.977274e-05,3
-1.1276522e-05,2.7643066e-05,-2.3307523e-06,4.2966058e-06,-4.406169e-07,-6.3287534e-06,2.7958944e-05,9.927674e-05,1.0043315e-05,-6.0872885e-06,1.3024834e-07,-3.060576e-05,3
-2.487271e-05,1.2903396e-06,1.6976296e-06,6.142726e-06,1.3876242e-07,-4.5405568e-07,3.047558e-05,9.206439e-05,6.1827955e-06,-3.0593277e-05,2.3122493e-06,-2.757824e-05,3
-3.6958252e-05,-1.7844872e-05,-2.3307523e-06,5.4711077e-06,6.335476e-07,3.7421487e-06,2.6110401e-05,5.061078e-05,-5.734487e-06,-3.865004e-05,2.4800604e-06,-2.3543626e-05,3
-3.964424e-05,-2.2880746e-05,-9.38042e-06,3.120998e-06,4.568609e-06,4.5813686e-06,1.6038346e-05,-7.459333e-07,-1.4462632e-05,-3.1096824e-05,1.1372287e-06,-2.3201692e-05,3
-2.5545309e-05,-1.5831476e-05,-1.2401707e-05,7.7088845e-07,8.177563e-06,5.924133e-06,1.1337463e-05,-3.1960735e-05,-1.1105631e-05,-2.1361571e-05,2.9794595e-07,-2.6384592e-05,3
1.6458674e-06,-4.5859756e-06,-1.1058912e-05,-1.9149197e-06,8.0568725e-06,7.434749e-06,1.8050332e-05,-3.6823203e-05,1.4028504e-07,-1.9515228e-05,-7.091886e-07,-2.7888997e-05,3
3.4040368e-05,5.484579e-06,-1.0051817e-05,-2.5865356e-06,5.9090617e-06,9.4489105e-06,2.6777392e-05,-3.581095e-05,9.875558e-06,-1.9515228e-05,-3.7827096e-08,-2.7043512e-05,3
5.3510477e-05,1.0855356e-05,-8.709023e-06,-1.0761121e-06,5.6246545e-06,1.196662e-05,2.5601346e-05,-4.772309e-05,1.3903959e-05,-1.9179528e-05,2.6477214e-06,-2.4519532e-05,3
4.5956855e-05,1.2701296e-05,-7.3662295e-06,1.1057085e-06,5.8987257e-06,1.38129335e-05,1.4690041e-05,-6.36636e-05,1.2393336e-05,-2.2032966e-05,3.9904794e-06,-2.1827702e-05,3
2.36325e-05,1.0015309e-05,-4.344943e-06,5.1338707e-06,6.4355186e-06,1.3141506e-05,5.896034e-07,-7.1547365e-05,6.518633e-06,-2.7236292e-05,1.976251e-06,-1.9639416e-05,3
3.3223341e-06,5.147279e-06,-3.1656128e-07,7.987089e-06,6.764034e-06,1.1462984e-05,-1.3510832e-05,-6.5331784e-05,2.3224238e-06,-3.3950262e-05,1.1369671e-06,-1.6276186e-05,3
-1.1113107e-05,-5.5999715e-07,-3.1656128e-07,7.483323e-06,6.401133e-06,1.0120159e-05,-2.6268477e-05,-3.3938813e-05,2.490296e-06,-3.4957357e-05,6.333832e-07,-1.3080802e-05,3
-1.6820388e-05,-5.5958767e-06,-1.9950537e-06,3.454722e-06,4.2911033e-06,9.113031e-06,-3.1640753e-05,9.371453e-06,2.8260183e-06,-1.3136956e-05,-3.8049638e-08,-1.3913798e-05,3
-1.4806608e-05,-2.2392958e-06,-2.4986016e-06,9.751892e-08,1.0381943e-06,1.0120095e-05,-2.862057e-05,2.8511427e-05,8.118523e-07,2.5132671e-05,-2.0593635e-07,-1.3236151e-05,3
-6.582405e-06,7.999103e-06,1.9137174e-08,-9.097928e-07,-1.7035751e-07,1.1966404e-05,-2.2579101e-05,1.223521e-05,-1.8737104e-06,5.2659947e-05,8.0112204e-07,-1.0040762e-05,3
8.523616e-06,1.9244599e-05,3.0404233e-06,-1.9171061e-06,1.3047041e-06,1.2134221e-05,-2.0230313e-05,-2.9218389e-05,-4.559271e-06,4.8631562e-05,9.689345e-07,-8.356016e-06,3
1.9601255e-05,2.444752e-05,3.5439714e-06,-3.5958165e-06,1.3807141e-06,1.0455696e-05,-2.157421e-05,-8.4267784e-05,-4.5592433e-06,1.87544e-05,1.3045961e-06,-7.3426645e-06,3
1.8761597e-05,2.2768623e-05,1.1940818e-06,-3.7638824e-06,-1.2148546e-06,7.770073e-06,-1.9561121e-05,-0.00014418479,-2.2093268e-06,-1.8508132e-05,6.331639e-07,-6.1614624e-06,3
9.025927e-06,1.6222097e-05,-2.3307523e-06,-3.931948e-06,-1.7006049e-06,6.5950962e-06,-1.1505459e-05,-0.00017221045,1.3155371e-06,-4.972809e-05,2.9742972e-07,-4.980259e-06,3
-2.556084e-06,4.1365447e-06,-5.687737e-06,-4.7714116e-06,-6.0380654e-07,6.595061e-06,4.439115e-06,-0.00012722169,2.3226628e-06,-7.708752e-05,-2.0615434e-07,-2.624109e-06,3
-1.078111e-05,-1.1138142e-05,-9.044722e-06,-4.9394766e-06,1.1034551e-06,3.7415882e-06,2.1390786e-05,-5.6719848e-05,3.1619404e-06,-0.00010343985,-1.7168333e-06,4.0343915e-07,3
-1.0445828e-05,-2.3055845e-05,-1.1394611e-05,-7.4346036e-07,2.1497162e-06,2.5666066e-06,3.381053e-05,-2.9355258e-05,6.1832593e-06,-0.0001247567,-2.723965e-06,1.0810998e-06,3
-3.3965764e-06,-2.4063349e-05,-8.205476e-06,5.4667453e-06,1.7849127e-06,3.0701206e-06,4.1530493e-05,-4.2610183e-05,5.679745e-06,-0.00013331701,-1.5490558e-06,2.4811888e-07,3
1.6384846e-06,-1.5671296e-05,-1.3236568e-06,7.4807213e-06,4.2141195e-07,1.3915909e-06,4.1193693e-05,-4.6801255e-05,4.336985e-06,-0.000120056924,9.686465e-07,1.0936315e-06,3
-4.0426208e-08,-7.4470936e-06,2.704725e-06,4.6270698e-06,-1.4064835e-06,-2.13328e-06,3.112163e-05,-2.1618702e-05,3.6656236e-06,-8.816557e-05,1.47216e-06,1.4355976e-06,3
-6.754815e-06,-4.929765e-06,2.3690266e-06,-7.2924976e-08,-2.8848667e-06,-5.9938516e-06,1.5174852e-05,1.2627709e-05,4.3370565e-06,-5.5770663e-05,-7.099174e-07,2.1132653e-06,3
-1.011222e-05,-5.769421e-06,8.583834e-07,-4.4372186e-06,-4.4306566e-06,-1.0861517e-05,5.774194e-06,4.234219e-05,4.8406414e-06,-3.2943168e-05,-2.0527448e-06,2.7909334e-06,3
-8.601995e-06,-6.6090784e-06,2.704725e-06,-5.948076e-06,-7.1508975e-06,-1.4889936e-05,7.95513e-06,8.0784834e-05,2.826489e-06,-1.3640504e-05,-1.0456858e-06,2.461508e-06,3
-3.9026377e-06,-6.44164e-06,6.229559e-06,-4.2697975e-06,-8.080873e-06,-1.4218578e-05,4.5970464e-06,0.00012527005,9.801864e-07,4.487213e-06,9.6847e-07,7.8928906e-07,3
-3.5673615e-06,-4.2600127e-06,9.250845e-06,-1.5844242e-06,-5.0673507e-06,-1.1197331e-05,-1.051049e-05,0.00015515237,2.4908695e-06,1.657236e-05,1.4719841e-06,1.4669606e-06,3
-2.7066677e-05,-4.260425e-06,1.2943529e-05,1.7723473e-06,-1.8055564e-06,-6.833291e-06,-2.8807159e-05,0.00014743648,3.8337043e-06,2.0936439e-05,-3.86938e-08,2.8160325e-06,3
-8.027531e-05,-1.0974807e-05,1.680406e-05,2.4435312e-06,-2.3925356e-06,-4.4834437e-06,-4.3746844e-05,9.591193e-05,4.8408415e-06,2.278278e-05,-2.0529196e-06,2.822311e-06,3
-0.00014070146,-2.1046175e-05,1.6636212e-05,2.1076205e-06,-6.0366538e-06,-5.8262785e-06,-5.5161698e-05,8.63549e-06,5.8479804e-06,2.9832448e-05,-1.3815581e-06,4.507083e-06,3
-0.00017057906,-2.759271e-05,1.4622021e-05,-1.0817272e-06,-8.856977e-06,-9.854701e-06,-6.489805e-05,-6.168817e-05,5.5123255e-06,4.1917596e-05,-7.1019673e-07,7.7025e-06,3
-0.0001440593,-2.9439467e-05,1.277568e-05,-5.2781716e-06,-1.0988264e-05,-1.0861838e-05,-6.0870774e-05,-6.2354404e-05,4.3374257e-06,5.2324245e-05,-3.563666e-06,6.1981395e-06,3
-6.835972e-05,-2.7089993e-05,8.579448e-06,-7.6282727e-06,-1.1552315e-05,-7.5048947e-06,-3.854793e-05,-2.1226171e-05,2.6589792e-06,5.1988547e-05,-6.0814405e-06,1.5046436e-06,3
4.779153e-05,-1.4333866e-05,6.5652575e-06,-3.7679522e-06,-6.4837086e-06,-3.6444044e-06,-1.20288505e-05,3.7885336e-06,-4.5584907e-06,4.460318e-05,-4.9065297e-06,-1.510357e-06,3
0.00015941086,8.157516e-06,7.404504e-06,3.7850523e-06,2.236441e-06,-1.4624085e-06,2.908628e-06,2.4509077e-06,-1.42937e-05,3.4532226e-05,-2.5566746e-06,1.744228e-07,3
0.00017384546,1.889945e-05,5.7260113e-06,7.477525e-06,5.9022104e-06,-7.910541e-07,3.2432245e-06,-7.950577e-06,-2.1679018e-05,2.1775686e-05,-2.7245578e-06,3.705544e-06,3
8.203148e-05,6.3103394e-06,1.1940818e-06,3.9524793e-06,3.1214383e-06,5.516948e-07,-4.478943e-06,-1.6002172e-05,-2.4700254e-05,7.676349e-06,-2.2210445e-06,4.5510806e-06,3
-1.4985804e-05,-1.39998365e-05,-5.01634e-06,-2.5938505e-06,7.0734285e-07,3.5729372e-06,-1.4215302e-05,-2.0025385e-05,-2.2350314e-05,-2.898153e-06,-3.903636e-08,1.5360843e-06,3
-5.1073817e-05,-2.6421098e-05,-1.2233857e-05,-5.27965e-06,-1.1733143e-06,7.2655753e-06,-2.3615961e-05,-6.2565787e-06,-1.2615007e-05,-1.0451368e-05,2.982215e-06,-3.1574016e-06,3
-2.8414608e-05,-2.558227e-05,-2.0122772e-05,-6.119105e-06,-2.047315e-06,1.1965308e-05,-2.5127709e-05,4.309627e-05,-1.9411053e-07,-1.3976202e-05,4.1571266e-06,-4.8296006e-06,3
3.7214013e-05,-1.3665395e-05,-2.5158248e-05,-8.972753e-06,-1.9708382e-06,1.683289e-05,-1.5225705e-05,0.00010621274,7.19131e-06,-1.0787067e-05,2.982148e-06,-4.4876065e-06,3
0.0001092209,-1.9163683e-06,-2.4151153e-05,-1.2329947e-05,-3.7157238e-07,2.1196924e-05,-1.4219712e-05,0.00012468133,6.687817e-06,-4.7444946e-06,2.1428687e-06,-3.8099145e-06,3
0.00014027258,5.468577e-06,-1.3576651e-05,-1.3169402e-05,1.8285868e-06,2.3546767e-05,-3.3187778e-05,9.212375e-05,3.834435e-06,2.3051732e-06,4.8284237e-06,-3.803617e-06,3
0.000117108946,7.818045e-06,2.3690266e-06,-8.637682e-06,7.447925e-07,2.0357584e-05,-5.0477352e-05,5.486639e-05,-1.5366836e-06,1.3047525e-05,6.1711835e-06,-3.9651673e-06,3
7.380341e-05,4.796338e-06,1.0090092e-05,-1.5882231e-06,-5.706883e-07,1.4314963e-05,-4.8464266e-05,4.8661135e-05,-1.4964566e-05,2.7818258e-05,3.8212625e-06,-3.958867e-06,3
4.1911615e-05,1.7746287e-06,6.397408e-06,3.4470456e-06,8.1064906e-07,1.095793e-05,-2.7148515e-05,6.461198e-05,-2.9399542e-05,4.1246196e-05,1.9748875e-06,-3.4490179e-06,3
2.4454856e-05,6.4739856e-06,-9.716119e-06,4.7896324e-06,7.83593e-07,9.615087e-06,4.4060384e-06,5.8574587e-05,-3.62813e-05,4.493888e-05,1.4713078e-06,-3.4427153e-06,3
1.3376367e-05,2.4769126e-05,-4.6810797e-05,3.2787805e-06,-4.2734478e-06,7.9365445e-06,3.1260817e-05,5.203694e-06,-3.661694e-05,3.9232007e-05,1.6391241e-06,-4.443507e-06,3
6.661958e-06,4.1553627e-05,-8.4073334e-05,1.935779e-06,-7.110008e-06,6.593703e-06,4.149852e-05,-7.603016e-05,-3.644903e-05,3.2853735e-05,1.6390915e-06,-4.772901e-06,3
5.3187246e-06,3.7692673e-05,-8.675892e-05,4.78901e-06,-4.2223196e-06,5.2508576e-06,3.881183e-05,-0.00015390705,-3.577757e-05,3.134309e-05,6.319631e-07,-5.77369e-06,3
6.493228e-06,2.1914419e-05,-5.067133e-05,1.0831375e-05,1.7852235e-06,6.425752e-06,2.9243316e-05,-0.00021164202,-3.3595465e-05,3.386083e-05,6.3193073e-07,-7.4458753e-06,3
9.178374e-06,8.653902e-06,-5.3520384e-06,1.6705892e-05,6.951828e-06,9.446986e-06,1.5982127e-05,-0.0002530956,-2.9231323e-05,3.9735554e-05,6.3189856e-07,-7.943114e-06,3
1.169567e-05,4.4572444e-06,2.570007e-05,1.9559122e-05,1.17300315e-05,1.062188e-05,5.388915e-07,-0.00025342611,-2.6042122e-05,5.11493e-05,-3.7522958e-07,-8.440352e-06,3
8.67394e-06,1.083509e-05,4.2652842e-05,1.8887518e-05,1.3905321e-05,7.76839e-06,-1.9939816e-05,-0.0001809101,-2.5874207e-05,6.709498e-05,-1.3823566e-06,-6.9233975e-06,3
-2.2251295e-07,2.6108944e-05,5.3395193e-05,1.519463e-05,1.06191e-05,-1.2057532e-07,-4.176132e-05,-7.969183e-05,-2.4363497e-05,7.934797e-05,-2.2216354e-06,-3.3922513e-06,3
-2.572848e-06,3.6683017e-05,6.0948412e-05,8.816153e-06,3.822012e-06,-8.009542e-06,-5.1833376e-05,-2.5974901e-05,-1.8992252e-05,8.4887e-05,-2.7252142e-06,-1.9680284e-07,3
-3.9125254e-07,3.0640018e-05,5.8934216e-05,2.7733747e-06,-1.3313481e-06,-1.4052169e-05,-4.948459e-05,-2.865532e-05,-9.08908e-06,8.3376355e-05,-1.8859989e-06,-6.40091e-06,3
-1.0462654e-05,1.4190363e-05,4.567413e-05,-2.2623065e-06,-4.4884932e-06,-1.8248455e-05,-3.924689e-05,-3.97282e-05,1.8211916e-06,6.961272e-05,-1.0467854e-06,-2.049393e-05,3
-3.3794146e-05,-2.2592922e-06,3.12391e-05,-7.9693855e-06,-6.9559965e-06,-2.0766247e-05,-2.2295217e-05,-2.9484225e-05,1.30671615e-05,4.2588992e-05,-1.3825149e-06,-2.9887173e-05,3
-6.182542e-05,-1.5016264e-05,2.5196523e-05,-1.501926e-05,-9.5331325e-06,-2.1605549e-05,1.5382732e-06,-3.1267246e-06,2.2970338e-05,1.6337763e-06,-2.3896423e-06,-3.0887946e-05,3
-8.414981e-05,-2.676614e-05,3.3421136e-05,-2.005494e-05,-1.2017868e-05,-2.026281e-05,3.225358e-05,2.6252063e-05,2.7334492e-05,-4.4692613e-05,-3.7324664e-06,-2.7860344e-05,3
-8.3982406e-05,-3.364839e-05,5.3395193e-05,-2.2069336e-05,-1.3201614e-05,-1.8416524e-05,6.431168e-05,5.361666e-05,2.7166716e-05,-7.893386e-05,-4.2360466e-06,-2.5504134e-05,3
-5.5112796e-05,-3.0291836e-05,6.984442e-05,-2.2573086e-05,-1.3899663e-05,-1.5730991e-05,8.7138076e-05,7.1413844e-05,2.297056e-05,-8.497643e-05,-4.7396247e-06,-1.945524e-05,3
-2.4396833e-05,-1.250025e-05,6.799808e-05,-2.6433821e-05,-1.4497764e-05,-1.4556104e-05,9.653653e-05,8.618975e-05,2.0285048e-05,-6.634517e-05,-5.0753533e-06,-9.210114e-06,3
-2.7586422e-05,1.0326815e-05,2.586792e-05,-3.3819393e-05,-1.657654e-05,-1.489186e-05,9.7038974e-05,0.000102644146,2.1292219e-05,-3.9321436e-05,-5.4110824e-06,-1.4827259e-06,3
-4.9239425e-05,1.7376049e-05,-4.5803707e-05,-3.6001635e-05,-1.9465022e-05,-1.7913204e-05,9.351305e-05,0.00010969899,2.045305e-05,-1.3808353e-05,-5.914662e-06,2.7198305e-06,3
-4.9911276e-05,1.620067e-05,-8.491258e-05,-2.895217e-05,-2.0841784e-05,-1.9256055e-05,8.965141e-05,0.00010299018,1.5249802e-05,7.004952e-06,-6.5860886e-06,5.747442e-06,3
-2.8259183e-05,2.7613985e-05,-7.2156035e-05,-1.837787e-05,-1.6568547e-05,-1.4388487e-05,8.2097096e-05,9.09102e-05,1.4746334e-05,2.1272137e-05,-5.914723e-06,7.0965616e-06,3
-9.964069e-06,4.2216434e-05,-4.932854e-05,-8.978513e-06,-7.5853263e-06,-6.4996325e-06,6.547892e-05,7.245197e-05,2.0956835e-05,2.949675e-05,-6.0826023e-06,6.431493e-06,3
-8.118183e-06,3.8355465e-05,-4.261457e-05,-3.6075396e-06,1.6647704e-06,-1.2141984e-07,4.147537e-05,5.080458e-05,2.934938e-05,2.6307614e-05,-5.243385e-06,1.096975e-05,3
-1.0804227e-05,2.2073657e-05,-4.3285963e-05,-5.8645384e-07,7.1286017e-06,2.396257e-06,1.3443447e-05,4.191374e-05,3.3377844e-05,1.858655e-05,-3.7327725e-06,2.625036e-05,3
-9.797591e-06,7.973883e-06,-3.774694e-05,1.0918382e-06,7.993706e-06,3.4032935e-06,-6.867412e-06,5.1654166e-05,2.9685243e-05,2.546837e-05,-2.3900095e-06,4.874849e-05,3
-5.0982685e-06,8.4533085e-08,-2.2304812e-05,3.6093745e-06,7.024472e-06,3.7389307e-06,-1.3582484e-05,6.575868e-05,2.0285772e-05,3.822491e-05,-2.0543393e-06,7.342866e-05,3
2.4544877e-06,2.769684e-06,3.2082726e-06,8.812501e-06,6.495965e-06,3.0674732e-06,-1.8451214e-05,6.139976e-05,1.1221997e-05,3.788921e-05,-2.0543691e-06,9.105916e-05,3
6.3145612e-06,7.1333266e-06,2.9224904e-05,1.2840683e-05,5.634312e-06,3.8182225e-07,-3.053746e-05,3.6563244e-05,7.1937015e-06,2.2111384e-05,-2.3900989e-06,8.0155296e-05,3
5.9784015e-06,8.322022e-08,3.4763932e-05,1.2840483e-05,3.1318293e-06,-2.4716762e-06,-4.0441668e-05,1.1055328e-05,1.0215075e-05,3.983666e-06,-1.8865794e-06,4.508114e-05,3
6.3136395e-06,-6.2954896e-06,2.6371468e-05,1.1497489e-05,9.860624e-07,-4.485932e-06,-3.9099974e-05,-3.0388376e-06,1.6761283e-05,-1.3976202e-05,-3.759668e-07,1.3867516e-05,3
1.1684353e-05,-4.212046e-07,2.3350181e-05,1.3175782e-05,1.6225679e-06,-3.9824463e-06,-3.0708616e-05,-1.4279568e-05,1.6425674e-05,-3.3950262e-05,3.148839e-06,1.3873852e-05,3
1.8062161e-05,9.1457605e-06,2.7546412e-05,1.804321e-05,5.779967e-06,-4.576761e-07,-2.298865e-05,-3.4919856e-05,8.53685e-06,-5.375647e-05,7.0093415e-06,4.056822e-05,3
2.3936422e-05,1.401295e-05,3.308544e-05,2.5428379e-05,1.2741535e-05,3.2349437e-06,-1.661148e-05,-5.47209e-05,3.1657648e-06,-6.0806142e-05,9.0235035e-06,6.088431e-05,3
3.0146379e-05,1.6026699e-05,3.3924684e-05,3.0295809e-05,1.9114079e-05,4.409822e-06,-4.863134e-06,-4.3973378e-05,3.837254e-06,-5.0063787e-05,7.3449824e-06,5.6694425e-05,3
3.7195583e-05,1.6194106e-05,3.0735548e-05,3.113486e-05,2.1364966e-05,6.256099e-06,1.6284768e-05,-8.048472e-06,3.5016483e-06,-3.831434e-05,5.6664608e-06,3.4376815e-05,3
4.5587578e-05,1.2668831e-05,2.6203617e-05,2.6938427e-05,1.9603684e-05,8.6059235e-06,3.9782564e-05,2.1833861e-05,-3.5479254e-06,-3.68037e-05,5.498583e-06,6.8558807e-06,3
5.2301082e-05,9.814951e-06,2.6539317e-05,1.821007e-05,1.4116023e-05,7.76661e-06,5.35451e-05,2.8720848e-05,-1.4458032e-05,-4.0664232e-05,7.0091974e-06,-1.2776139e-05,3
5.3307707e-05,1.2835795e-05,3.207834e-05,1.1831602e-05,8.7757e-06,3.9060114e-06,5.085841e-05,2.1508498e-05,-2.1507603e-05,-3.9657138e-05,7.8484145e-06,-1.7805272e-05,3
5.968551e-05,1.7031583e-05,3.5938872e-05,1.0824309e-05,7.146953e-06,2.7310004e-06,4.1122054e-05,1.7485283e-05,-1.9829014e-05,-3.4789507e-05,5.330647e-06,-1.39383965e-05,3
8.167329e-05,1.8877481e-05,3.12391e-05,8.138525e-06,8.599283e-06,3.905877e-06,2.9035806e-05,2.6890006e-05,-1.1940003e-05,-3.7475096e-05,4.491373e-06,-1.3260655e-05,3
0.00010063979,1.8037792e-05,1.5629115e-05,7.5296225e-07,1.0310641e-05,4.2415068e-06,6.8786067e-06,3.646258e-05,-4.554537e-06,-4.4524764e-05,6.337687e-06,-1.8289787e-05,3
9.745018e-05,1.3169718e-05,-4.0092445e-06,-6.9682997e-06,8.454751e-06,2.5629454e-06,-2.702804e-05,3.7306992e-05,1.4881341e-06,-4.8217447e-05,7.680453e-06,-2.0969028e-05,3
7.562931e-05,2.0912223e-06,-2.8515233e-05,-1.28432175e-05,3.2250043e-06,-1.8012025e-06,-5.6570603e-05,2.9255396e-05,8.202204e-06,-4.519616e-05,6.0019315e-06,-1.9284189e-05,3
5.3304888e-05,-1.9058227e-05,-6.158154e-05,-1.4018359e-05,-2.5758166e-06,-5.158257e-06,-6.580342e-05,1.9357456e-05,1.2566386e-05,-3.176822e-05,2.309221e-06,-1.4578062e-05,3
3.8701535e-05,-3.9200582e-05,-7.668797e-05,-1.0661569e-05,-3.4799662e-06,-5.3261756e-06,-6.261538e-05,1.09701605e-05,8.538107e-06,-1.5318996e-05,1.4699481e-06,-1.0879031e-05,3
2.3930326e-05,-4.121522e-05,-5.1678428e-05,-5.2905884e-06,-2.1729807e-06,-3.479904e-06,-5.2881223e-05,7.450492e-06,1.4574861e-07,-6.7586857e-06,2.6448636e-06,-8.187094e-06,3
2.9486969e-06,-2.7787728e-05,-1.3408802e-05,-3.7801399e-06,-2.0383509e-06,2.1270819e-07,-3.5090303e-05,1.0141246e-05,-5.8967203e-06,-8.437179e-06,3.987631e-06,-4.5967758e-07,3
-2.3907654e-05,-1.5031634e-05,2.8725742e-06,-6.130222e-06,-4.3106384e-06,3.9053198e-06,-1.8977877e-05,9.810713e-06,-1.1939187e-05,-1.6493941e-05,3.8197545e-06,9.449777e-06,3
-5.34496e-05,-1.2346494e-05,-3.1699983e-06,-9.8231e-06,-4.392704e-06,4.912344e-06,-1.3272102e-05,9.983727e-06,-1.7478107e-05,-2.790769e-05,1.1341382e-06,1.1973868e-05,3
-8.735562e-05,-1.503253e-05,-1.2737405e-05,-1.1669635e-05,-5.135663e-07,4.073025e-06,-1.3944597e-05,1.703856e-05,-1.8652941e-05,-3.3950262e-05,6.3056405e-07,6.273348e-06,3
-0.000113204886,-1.939706e-05,-1.1562461e-05,-1.0327037e-05,2.0983925e-06,5.0800486e-06,-1.9316873e-05,2.1743503e-05,-1.8484985e-05,-2.6397047e-05,2.644727e-06,-4.3426897e-07,3
-0.00011941579,-2.4432988e-05,-5.855586e-06,-8.816585e-06,-2.2709042e-07,7.933411e-06,-2.5024847e-05,1.7552435e-05,-1.8317027e-05,-5.9194394e-06,4.658892e-06,-1.602861e-06,3
-0.00010682757,-2.594408e-05,-1.3236568e-06,-8.648929e-06,-4.3862015e-06,9.611831e-06,-2.5697344e-05,1.1083723e-06,-1.6974123e-05,1.0865484e-05,3.987468e-06,2.4983677e-07,3
-8.181851e-05,-2.2419697e-05,8.583834e-07,-1.0663312e-05,-5.5839655e-06,9.6117565e-06,-1.965587e-05,-1.768558e-05,-1.4288425e-05,1.8083003e-05,9.661544e-07,1.2632872e-06,3
-5.69773e-05,-1.6377577e-05,-3.1656128e-07,-1.3013393e-05,-3.5930075e-06,1.0618778e-05,-5.893332e-06,-2.4058689e-05,-9.588534e-06,2.3789877e-05,-1.0480632e-06,-4.0884862e-07,3
-3.7171572e-05,-1.1006852e-05,-6.1912847e-06,-1.1670791e-05,9.525034e-07,1.39756885e-05,1.2736835e-05,7.881613e-07,-7.57423e-06,2.076859e-05,-1.5516367e-06,-2.0809848e-06,3
-1.4848106e-05,-6.307526e-06,-1.2737405e-05,-6.1319574e-06,5.1870584e-06,1.4143462e-05,2.532443e-05,3.7384456e-05,-1.3952388e-05,4.6550626e-06,-2.088691e-07,-6.4387073e-06,3
1.5867823e-05,-3.4545415e-06,-1.609439e-05,-2.5742696e-07,6.9986654e-06,1.1625647e-05,2.1798494e-05,4.8803366e-05,-2.7380212e-05,-1.46476e-05,1.8052956e-06,-1.5496207e-05,3
4.2891068e-05,-1.9443519e-06,-1.39123495e-05,2.0922719e-06,4.607796e-06,8.100737e-06,7.0266638e-06,2.4302539e-05,-3.6779653e-05,-2.9250483e-05,6.3032445e-07,-2.4553708e-05,3
5.229014e-05,1.5800284e-06,-6.359134e-06,3.0991762e-06,1.6676e-06,5.75077e-06,-6.570222e-06,-2.6718468e-05,-3.3254702e-05,-3.9992836e-05,-2.3909886e-06,-3.126132e-05,3
4.725418e-05,8.125695e-06,1.5297803e-06,4.777479e-06,1.6629058e-06,5.2471455e-06,-1.597088e-05,-7.841088e-05,-1.7980305e-05,-4.3853368e-05,-4.9087525e-06,-3.1926356e-05,3
4.2050367e-05,1.3832114e-05,3.7118202e-06,6.791479e-06,2.065511e-06,4.9113696e-06,-2.839282e-05,-9.535848e-05,-3.5451503e-06,-4.1503477e-05,-5.0766275e-06,-2.7220214e-05,3
3.5168065e-05,1.51744525e-05,1.361931e-06,8.63763e-06,2.4866165e-06,4.743443e-06,-4.853583e-05,-9.11571e-05,4.176034e-06,-3.831434e-05,-4.7409553e-06,-2.0835583e-05,3
1.1836531e-05,1.4166902e-05,-1.1558075e-06,8.973139e-06,3.2107716e-06,3.0648719e-06,-6.968593e-05,-0.00011112599,6.190345e-06,-3.663585e-05,-5.2445275e-06,-1.5458045e-05,3
-4.1707863e-05,9.802364e-06,-4.512792e-06,7.4623076e-06,4.247569e-06,-1.2992892e-06,-7.5058204e-05,-0.00014318003,3.840578e-06,-3.0928975e-05,-6.7551964e-06,-1.2094698e-05,3
-0.00011556203,-1.7796899e-06,-1.0387515e-05,6.119324e-06,4.129002e-06,-7.006242e-06,-6.565975e-05,-0.00014753896,4.837152e-07,-1.884383e-05,-6.9230705e-06,-9.5705955e-06,3
-0.00014795741,-1.3529594e-05,-1.5087295e-05,3.0978495e-06,2.2254128e-06,-1.1538251e-05,-4.7197424e-05,-0.000115978146,-1.6982016e-06,4.5883164e-07,-4.405359e-06,-6.7107953e-06,3
-0.00010817762,-1.3026503e-05,-1.6430089e-05,-1.937816e-06,2.43935e-07,-1.6238113e-05,-2.1685439e-05,-7.535348e-05,-2.3694743e-06,1.7579454e-05,-4.069686e-06,-2.34035e-06,3
-5.3962816e-05,-4.4666513e-06,-1.7269334e-05,-5.966385e-06,-1.6126617e-06,-1.9259476e-05,1.308812e-06,-5.68849e-05,-8.587049e-07,2.5636218e-05,-4.573258e-06,-6.5549295e-07,3
-3.0464415e-05,-2.1172198e-06,-2.2976208e-05,-7.980764e-06,-1.6388777e-06,-1.9427407e-05,1.3728557e-05,-6.359371e-05,1.49131e-06,3.0168147e-05,-4.573283e-06,-4.845358e-06,3
-3.0968455e-05,-9.670895e-06,-2.8011686e-05,-8.3166515e-06,-8.9299436e-07,-1.8420395e-05,1.43988555e-05,-7.6345095e-05,4.512724e-06,3.654642e-05,-5.076855e-06,-2.2127464e-05,3
-3.6004425e-05,-1.6721024e-05,-2.1969114e-05,-8.316838e-06,-2.3009552e-06,-1.4559945e-05,1.0872925e-05,-8.473241e-05,1.05554245e-05,4.695307e-05,-5.9161266e-06,-4.4948592e-05,3
-3.617277e-05,-1.8232126e-05,-8.373325e-06,-9.491968e-06,-5.862383e-06,-1.1203043e-05,1.5907306e-05,-8.170596e-05,1.5087483e-05,5.9373913e-05,-6.251849e-06,-5.786662e-05,3
-3.3487675e-05,-2.1086023e-05,-8.709023e-06,-1.2681291e-05,-1.0091127e-05,-1.3217318e-05,2.5641468e-05,-4.745957e-05,1.5255462e-05,6.424154e-05,-6.4197225e-06,-5.9035196e-05,3
-3.3991717e-05,-3.149314e-05,-3.3718563e-05,-1.3688574e-05,-1.1355662e-05,-1.607084e-05,3.101154e-05,2.035668e-05,1.4919895e-05,5.4674136e-05,-5.9162e-06,-5.802173e-05,3
-4.1713276e-05,-3.6193378e-05,-5.621036e-05,-1.0667472e-05,-9.257127e-06,-1.6574471e-05,3.1010444e-05,7.256295e-05,1.5591424e-05,4.326039e-05,-5.2448263e-06,-5.6840418e-05,3
-4.3895816e-05,-2.5787187e-05,-4.932854e-05,-5.967878e-06,-6.552773e-06,-1.45603635e-05,2.9666557e-05,5.7797362e-05,1.7605747e-05,3.4196528e-05,-4.9091523e-06,-5.448416e-05,3
-3.56717e-05,-4.6386463e-06,-2.2472661e-05,-2.6119076e-07,-4.274886e-06,-1.0867766e-05,2.798697e-05,7.3377674e-07,2.1466414e-05,2.4125575e-05,-5.412723e-06,-5.1624353e-05,3
-2.2915654e-05,2.3895262e-05,1.6976296e-06,4.4384033e-06,-3.2448352e-06,-5.832376e-06,2.4628887e-05,-3.8705643e-05,2.7341273e-05,1.3718922e-05,-6.0841453e-06,-4.6582507e-05,3
-1.6202182e-05,4.8904334e-05,1.2104282e-05,8.802299e-06,-2.0335704e-06,-1.8040786e-06,1.7242426e-05,-4.390382e-05,3.136979e-05,6.333555e-06,-6.419867e-06,-4.0030016e-05,3
-1.21743005e-05,6.249966e-05,8.24375e-06,1.2159099e-05,1.9741774e-06,1.2171218e-06,1.5059289e-05,-2.2917513e-05,3.3551965e-05,3.983666e-06,-5.9163435e-06,-3.0288387e-05,3
4.2744246e-06,6.837392e-05,3.5483563e-07,1.2158915e-05,5.13927e-06,3.231226e-06,2.0261521e-05,2.9364212e-06,3.7076938e-05,4.319364e-06,-3.7343261e-06,-1.635053e-05,3
2.5590778e-05,5.9813145e-05,-6.522598e-07,8.13035e-06,3.9761794e-06,3.2311384e-06,2.6303e-05,1.9726494e-05,4.2616102e-05,8.515595e-06,-1.5523096e-06,3.4620523e-06,3
3.6164776e-05,1.1136396e-05,2.3690266e-06,5.7802768e-06,2.5059414e-06,6.9237335e-06,3.1337382e-05,3.7187965e-05,4.4798282e-05,2.076859e-05,-4.1688946e-08,3.1499247e-05,3
2.6764717e-05,-6.6578265e-05,5.054614e-06,8.297832e-06,5.828367e-06,1.3134066e-05,3.3854023e-05,5.867782e-05,3.9427247e-05,3.7553513e-05,7.9753283e-07,6.96074e-05,3
-1.2848205e-05,-0.000111394475,9.7543925e-06,1.1151086e-05,8.638638e-06,1.2966128e-05,2.9656696e-05,7.110381e-05,2.3817409e-05,5.2827796e-05,1.6367568e-06,0.00011224747,3
-5.279683e-05,-8.6217566e-05,2.1671689e-05,1.14866025e-05,9.0567855e-06,9.776904e-06,2.3613033e-05,7.110895e-05,1.6614522e-06,6.054886e-05,1.4688848e-06,0.000142131,3
-2.4598663e-05,-2.0924675e-05,3.912801e-05,1.1318571e-05,8.3817395e-06,9.608964e-06,2.059065e-05,7.1449795e-05,-1.3612685e-05,4.896726e-05,1.3010109e-06,0.00014431943,3
8.7524124e-05,3.1611668e-05,5.2388103e-05,1.1486238e-05,8.614534e-06,1.1287367e-05,1.7568269e-05,7.581903e-05,-1.3612541e-05,1.1369033e-05,7.9744115e-07,0.00012065906,3
0.00019192584,4.738903e-05,5.2220254e-05,1.081466e-05,9.203849e-06,1.246222e-05,9.174714e-06,6.1892686e-05,-6.5627273e-06,-4.267842e-05,1.1331165e-06,8.47457e-05,3
0.00019293244,3.4967714e-05,4.6345525e-05,8.464589e-06,9.257997e-06,1.02800905e-05,-2.911527e-06,3.55455e-05,-7.569677e-06,-8.799772e-05,1.133094e-06,5.2860716e-05,3
0.00011689622,1.6000284e-05,5.0038212e-05,5.4431207e-06,7.775894e-06,9.7764505e-06,-2.9126209e-06,2.1619157e-05,-1.646554e-05,-0.00011116091,-7.132705e-07,3.2893033e-05,3
5.3448704e-05,2.7397243e-06,6.380185e-05,4.7715444e-06,6.8176414e-06,1.2629795e-05,1.3367663e-05,3.035246e-05,-2.385076e-05,-0.00011132876,-2.7274828e-06,2.4003397e-05,3
3.7166817e-05,-4.4782637e-06,7.790118e-05,6.785554e-06,6.593592e-06,1.3636798e-05,2.5283867e-05,4.1267802e-05,-2.385061e-05,-9.739728e-05,-3.063203e-06,2.4345472e-05,3
4.287318e-05,-6.828624e-06,8.7636436e-05,8.128168e-06,5.7868933e-06,1.3972404e-05,2.2932883e-05,4.3622833e-05,-2.133272e-05,-7.356269e-05,-2.391829e-06,2.9387327e-05,3
4.555826e-05,-7.3326423e-06,8.897923e-05,7.4565914e-06,4.2653305e-06,1.2797364e-05,1.5210727e-05,4.2620883e-05,-2.2003966e-05,-4.4692613e-05,-2.391851e-06,3.7786165e-05,3
4.2536463e-05,-1.1025797e-05,8.142601e-05,5.1065226e-06,2.2251004e-06,1.0279534e-05,9.16706e-06,3.4904955e-05,-2.5864347e-05,-1.884383e-05,-1.0490788e-06,5.1891875e-05,3
3.8843267e-05,-1.6061747e-05,6.447324e-05,4.7706453e-06,-4.9744305e-08,8.433098e-06,3.4590919e-06,1.2753995e-05,-3.1906766e-05,1.5397414e-05,1.4686394e-06,7.2375864e-05,3
3.531792e-05,-2.025845e-05,3.3924684e-05,7.120355e-06,-6.186663e-07,8.936549e-06,-1.1144884e-05,-1.8628672e-05,-3.408865e-05,6.289875e-05,3.1471097e-06,9.185275e-05,3
2.575e-05,-2.7140743e-05,-1.3408802e-05,7.120176e-06,1.0224212e-06,8.600757e-06,-3.3469925e-05,-4.4640165e-05,-2.7710228e-05,9.797924e-05,2.6435393e-06,9.958019e-05,3
1.2321547e-05,-3.8554965e-05,-8.289839e-05,3.9308625e-06,1.3262754e-06,6.7543197e-06,-5.3109376e-05,-6.0748556e-05,-1.914976e-05,0.00010133622,1.300724e-06,8.649433e-05,3
4.599968e-06,-4.208027e-05,-0.00014282057,-1.6083403e-06,-1.1124871e-06,1.0473497e-06,-6.150293e-05,-6.7121684e-05,-1.5121222e-05,8.069076e-05,-7.134883e-07,6.0148373e-05,3
3.7602058e-06,-2.4288727e-05,-0.0001354352,-8.154637e-06,-4.722277e-06,-6.002417e-06,-5.764349e-05,-5.049948e-05,-1.3610421e-05,5.584908e-05,-1.2170565e-06,3.4473822e-05,3
3.7596897e-06,7.9378515e-06,-6.762411e-05,-1.1008252e-05,-5.3748e-06,-1.0198744e-05,-5.126631e-05,-9.20343e-06,-7.903388e-06,3.5203626e-05,-1.7206245e-06,1.3499047e-05,3
6.7804594e-06,3.4961104e-05,-7.701928e-06,-7.315746e-06,-3.2630828e-06,-1.0870239e-05,-5.0596005e-05,4.199572e-05,-1.1892599e-06,1.8922248e-05,1.2569656e-07,-3.9508973e-06,3
1.5675952e-05,4.4192337e-05,4.3832174e-06,-3.958938e-06,-2.4023234e-06,-8.856147e-06,-4.724011e-05,9.772681e-05,8.2509183e-07,5.9978565e-06,2.3077148e-06,-1.7876004e-05,3
1.5339736e-05,3.563155e-05,-1.4415898e-05,-4.7983613e-06,-2.7025606e-06,-7.009902e-06,-3.045628e-05,0.00014019781,-2.8674312e-06,-1.263341e-05,3.818338e-06,-2.7604881e-05,3
5.2682626e-06,1.6999806e-05,-3.2711465e-05,-7.651974e-06,-2.8888128e-06,-4.492264e-06,8.315805e-06,0.00016135193,-8.909842e-06,-4.1503477e-05,2.4755225e-06,-3.6158814e-05,3
3.421401e-06,1.0536529e-06,-3.757909e-05,-9.330641e-06,-2.577952e-06,3.7526559e-07,5.7830235e-05,0.00017696705,-1.5120098e-05,-7.3226984e-05,1.971955e-06,-4.622339e-05,3
2.0709353e-05,-4.6536998e-06,-3.3718563e-05,-7.652325e-06,-7.2153614e-07,5.2427936e-06,8.4349325e-05,0.00018435753,-1.6630578e-05,-0.000102936305,3.1468796e-06,-5.209173e-05,3
4.8236107e-05,4.5601197e-08,-2.7508138e-05,-5.4704597e-06,4.6921514e-06,1.0278171e-05,7.8977064e-05,0.00016556356,-1.0419993e-05,-0.00012794584,5.4967486e-06,-5.0406863e-05,3
5.797084e-05,7.094791e-06,-2.46547e-05,-4.6313876e-06,9.8611135e-06,1.2963657e-05,6.286245e-05,0.0001199137,-2.3630623e-06,-0.0001376811,3.6503873e-06,-4.5197154e-05,3
3.6485613e-05,8.772804e-06,-2.3815455e-05,-5.30296e-06,1.1662066e-05,1.2963556e-05,5.5811688e-05,9.08809e-05,-3.4870436e-07,-0.00012643519,9.647783e-07,-4.183379e-05,3
-1.6555266e-05,4.743943e-06,-1.0051817e-05,-6.3102293e-06,7.885356e-06,1.2292058e-05,6.202102e-05,0.0001091816,-2.1948786e-06,-9.504739e-05,1.3004565e-06,-4.199526e-05,3
-8.252054e-05,4.368423e-08,1.5125568e-05,-5.974704e-06,1.6169876e-07,9.10282e-06,8.300108e-05,0.00013839248,-3.8732014e-06,-5.0231636e-05,1.2549364e-07,-4.4674467e-05,3
-0.00013606498,-3.6494791e-06,3.526748e-05,-6.1427268e-06,-6.4893093e-06,2.3887471e-06,0.000108513086,0.00010986324,-4.8801267e-06,-2.0589068e-06,-2.056566e-06,-4.668228e-05,3
-0.00015536816,-7.5104936e-06,3.7617367e-05,-8.66064e-06,-9.760148e-06,-3.4860777e-06,0.00012311486,2.0572577e-05,-6.894148e-06,3.7217815e-05,-2.7279837e-06,-4.56688e-05,3
-0.00012868067,-1.2378602e-05,1.0761489e-05,-9.332209e-06,-9.201068e-06,-4.157578e-06,0.00011992466,-8.416023e-05,-7.3975234e-06,6.222735e-05,-1.385209e-06,-4.0626943e-05,3
-4.5092267e-05,-1.1204139e-05,-4.7314345e-05,-7.3181914e-06,-8.838003e-06,-2.1434912e-06,9.541758e-05,-0.00016371564,-4.3760638e-06,8.3208506e-05,9.646607e-07,-3.491369e-05,3
9.187219e-05,6.5873987e-06,-9.649418e-05,-4.6327746e-06,-6.943232e-06,2.0629336e-07,5.9496753e-05,-0.00016287126,4.9173707e-07,0.0001073788,1.8038885e-06,-3.3396667e-05,3
0.00018922423,2.2532593e-05,-9.3976436e-05,-3.2901546e-06,-3.1378731e-06,2.0618852e-07,1.1826478e-05,-8.162711e-05,3.1774994e-06,0.0001315491,-4.247158e-08,-3.5908022e-05,3
0.00016035362,1.1789759e-05,-4.74822e-05,-1.9475312e-06,-2.4341055e-06,-4.157997e-06,-4.9103885e-05,-1.5992944e-05,2.1705796e-06,0.00014464132,-8.817386e-07,-3.690874e-05,3
5.9811395e-05,-7.681237e-06,-5.01634e-06,-7.727575e-07,-4.29199e-06,-9.697129e-06,-0.00010701296,-1.733062e-05,3.8492485e-06,0.00014514486,2.931886e-07,-3.388107e-05,3
-9.343019e-06,-1.23815e-05,1.1600734e-05,2.3416547e-07,-3.142936e-06,-1.1711424e-05,-0.00014226239,-3.6124613e-05,8.213506e-06,0.00013389898,4.6101886e-07,-2.346804e-05,3
-2.3946433e-05,-6.171562e-06,1.8314704e-05,1.7446388e-06,2.8962745e-07,-9.697342e-06,-0.00015787345,-2.9237679e-05,1.1067121e-05,0.00011157503,-2.1039675e-07,-1.204791e-05,3
-2.5625459e-05,5.4192225e-07,4.7016925e-05,3.4229604e-06,1.063347e-06,-1.0033146e-05,-0.0001560282,-1.4293978e-05,1.0899451e-05,7.934797e-05,-1.8889073e-06,-6.670354e-06,3
-4.3250162e-05,9.940996e-06,0.000102239326,4.7655853e-06,3.5371013e-07,-1.2550994e-05,-0.00013353748,-1.5463807e-05,9.5568375e-06,4.05748e-05,-3.7352677e-06,-6.9996718e-06,3
-6.758883e-05,1.8500821e-05,0.00015259409,6.276058e-06,-1.3560001e-06,-1.3222498e-05,-9.8290235e-05,-4.0803927e-05,7.03928e-06,-5.482638e-07,-5.07808e-06,-5.6504978e-06,3
-8.1520855e-05,1.7493237e-05,0.00016316859,6.4437386e-06,-3.290434e-06,-1.3054758e-05,-6.89177e-05,-9.2160684e-05,2.8432312e-06,-2.9586183e-05,-5.7494963e-06,1.5734005e-06,3
-8.403912e-05,1.36322205e-05,0.00013194865,2.918735e-06,-3.0411547e-06,-1.3222715e-05,-5.297311e-05,-0.00015174205,3.1791121e-06,-4.0664232e-05,-4.40672e-06,3.090424e-06,3
-7.1618815e-05,1.212109e-05,7.957967e-05,-9.4196577e-07,-2.6865264e-06,-1.2215727e-05,-4.0385505e-05,-0.00019705622,7.0398287e-06,-4.8385296e-05,-2.7282451e-06,-3.6171652e-06,3
-4.2581436e-05,5.4066318e-06,1.277568e-05,-1.1099833e-06,-5.6085487e-06,-1.03694965e-05,-3.0483485e-05,-0.00021736087,1.0900546e-05,-5.8288402e-05,-1.3854689e-06,-3.107238e-06,3
-8.172877e-06,-1.2218026e-05,-6.1749386e-05,-7.744534e-07,-8.6097625e-06,-9.362513e-06,-2.4441997e-05,-0.0002208806,1.2914923e-05,-6.164539e-05,-5.462405e-07,7.4736445e-06,3
1.7339671e-05,-2.2625167e-05,-0.00012150371,-1.4460192e-06,-7.735973e-06,-7.851979e-06,-1.8400511e-05,-0.00022104333,1.1740165e-05,-5.3420772e-05,1.971481e-06,9.997762e-06,3
6.5967815e-06,-1.8932973e-05,-0.00014617754,-3.1246786e-06,-5.234365e-06,-6.341448e-06,-1.504461e-05,-0.00019518945,8.3833675e-06,-3.7307247e-05,3.6499564e-06,9.4028474e-07,3
-3.4023273e-05,-1.5408628e-05,-0.00012737843,-3.6283939e-06,-3.5814853e-06,-4.4952185e-06,-1.52135435e-05,-0.00011394531,6.872913e-06,-2.2200815e-05,1.971446e-06,-9.12429e-06,3
-6.507592e-05,-2.145169e-05,-8.306624e-05,-1.1108208e-06,-1.7269025e-06,-4.6694777e-07,-1.5550326e-05,-1.8937533e-05,6.7052533e-06,-1.5151148e-05,-7.141602e-07,-1.0964252e-05,3
-5.920174e-05,-2.4473467e-05,-3.791479e-05,2.0781476e-06,8.3548457e-07,3.5613216e-06,-1.0683782e-05,3.1590193e-05,7.54469e-06,-1.9179528e-05,-2.0569694e-06,-6.425943e-06,3
-3.140632e-06,-1.2388812e-05,-9.879583e-07,1.9101315e-06,2.8155268e-06,6.2467957e-06,1.0645826e-06,4.4855387e-05,8.551977e-06,-2.9586183e-05,-7.141943e-07,-2.3911816e-06,3
8.011205e-05,9.766795e-06,3.241404e-05,-3.1255115e-06,2.264328e-06,6.5823824e-06,1.3148643e-05,4.8553175e-05,7.209375e-06,-3.3614564e-05,1.1321308e-06,-2.2169534e-06,3
0.00013214476,2.5544134e-05,5.3059495e-05,-7.825455e-06,-3.481808e-10,5.575171e-06,1.7847336e-05,5.426515e-05,3.1811862e-06,-2.6732745e-05,3.146306e-06,-4.7283124e-06,3
0.00012240898,2.6215039e-05,3.8624465e-05,-1.0175511e-05,-2.1839119e-06,3.5608668e-06,1.4489269e-05,6.366981e-05,4.020627e-06,-1.5822545e-05,3.6498375e-06,-9.92526e-06,3
7.8431935e-05,2.2521863e-05,1.277568e-05,-9.000731e-06,-2.2908039e-06,2.889355e-06,9.45271e-06,7.072458e-05,8.88845e-06,-7.9336305e-06,3.481971e-06,-1.696855e-05,3
4.4190143e-05,2.419986e-05,1.2439981e-05,-3.2940218e-06,-8.614726e-07,4.399882e-06,1.0794421e-05,7.039397e-05,1.224563e-05,-2.730304e-06,2.9784064e-06,-2.2165497e-05,3
3.1097356e-05,2.6717107e-05,2.9560602e-05,2.0769908e-06,3.703863e-07,6.413958e-06,1.5996668e-05,6.0328122e-05,1.1574431e-05,1.6337763e-06,1.6355972e-06,-2.5180405e-05,3
2.6229183e-05,2.6045218e-05,3.9799408e-05,6.6087564e-06,2.2871707e-07,7.253088e-06,1.700268e-05,4.2876898e-05,8.553342e-06,3.480118e-06,2.9278695e-07,-2.5845424e-05,3
2.0353915e-05,2.3862682e-05,3.6610272e-05,8.454934e-06,1.1160046e-06,7.4208206e-06,1.4987406e-05,2.3243632e-05,6.0358025e-06,2.9765704e-06,-8.8217513e-07,-2.2314212e-05,3
1.3639398e-05,2.15123e-05,2.6371468e-05,7.6155247e-06,3.4117293e-06,7.252854e-06,1.2972135e-05,5.960255e-06,3.5182636e-06,1.1033333e-05,-4.294308e-08,-1.6265261e-05,3
8.435524e-06,1.815482e-05,1.6300513e-05,7.2796634e-06,5.9616464e-06,5.238546e-06,8.774824e-06,-4.4413036e-06,3.293289e-07,2.295063e-05,2.474778e-06,-1.2230502e-05,3
4.2387455e-06,1.2783147e-05,9.7543925e-06,8.7901435e-06,7.6280126e-06,4.90273e-06,4.7453623e-06,-6.9539497e-06,-3.0274546e-06,2.3789877e-05,2.6426114e-06,-1.088133e-05,3
1.2169111e-06,7.747175e-06,4.5510665e-06,1.1475569e-05,7.602246e-06,8.595294e-06,3.0657877e-06,-5.270366e-06,-8.901976e-06,1.0194088e-05,1.2998017e-06,-1.2217747e-05,3
8.806628e-07,4.3896935e-06,1.9137174e-08,1.2482503e-05,6.671239e-06,1.0441518e-05,2.8968584e-06,3.9664324e-06,-1.30980025e-05,-5.7515904e-06,2.6425803e-06,-1.67433e-05,3
3.230002e-06,2.7107058e-06,-3.505697e-06,9.461054e-06,4.7592725e-06,9.93785e-06,5.0778194e-06,1.7063761e-05,-1.2258553e-05,-1.3136956e-05,4.656757e-06,-2.2947344e-05,3
4.9079445e-06,6.9601674e-07,-5.01634e-06,4.089718e-06,2.2024371e-06,8.427088e-06,7.7623245e-06,2.5461313e-05,-8.901363e-06,-1.246556e-05,2.9782486e-06,-2.730505e-05,3
5.57879e-06,-6.472738e-07,-5.01634e-06,3.9687274e-07,2.003955e-06,4.566435e-06,4.4042645e-06,2.1438018e-05,-7.894059e-06,-7.430083e-06,9.640424e-07,-3.233415e-05,3
7.928128e-06,6.9502136e-07,-4.6806417e-06,-1.617479e-06,1.4131571e-06,1.2093296e-06,-5.8356186e-06,1.7918268e-05,-9.236647e-06,1.6337763e-06,4.6048046e-07,-3.400627e-05,3
1.3298751e-05,4.051508e-06,-3.002149e-06,-3.6318304e-06,3.1816973e-07,-1.1406826e-06,-1.7753995e-05,1.9266146e-05,-1.0914931e-05,1.1201183e-05,6.283145e-07,-2.7285923e-05,3
1.9676469e-05,6.736598e-06,-1.3236568e-06,-3.9676884e-06,3.3709628e-07,-2.483596e-06,-2.715463e-05,1.7089189e-05,-1.1418269e-05,9.019142e-06,1.2996958e-06,-1.5026553e-05,3
2.1690104e-05,8.58244e-06,-6.522598e-07,-2.7516523e-07,1.445252e-06,-2.14802e-06,-2.6148613e-05,1.4072986e-05,-1.2257307e-05,-1.4144052e-05,1.6353811e-06,-9.145456e-06,3
1.3464938e-05,5.3928047e-06,-9.879583e-07,3.0816605e-06,2.1352887e-06,3.389746e-08,-1.5071642e-05,1.7099352e-05,-1.561408e-05,-5.0903036e-05,1.9710644e-06,-1.38388605e-05,3
-6.1739793e-06,2.1129496e-08,-3.1656128e-07,4.424295e-06,2.3367038e-06,2.7193626e-06,5.372582e-07,2.3147004e-05,-2.165644e-05,-7.994095e-05,2.6424461e-06,-2.3232044e-05,3
-3.185547e-05,-2.6649589e-06,1.8654788e-06,6.438328e-06,3.4978336e-06,5.2369774e-06,1.6985408e-05,3.255164e-05,-2.0816982e-05,-8.547998e-05,1.9710358e-06,-3.1618132e-05,3
-5.3844276e-05,-5.5188966e-06,3.7118202e-06,8.116662e-06,4.9821056e-06,7.083195e-06,3.293001e-05,5.0684437e-05,-1.0577965e-05,-5.845625e-05,3.3138156e-06,-3.7654332e-05,3
-6.592998e-05,-1.0722724e-05,3.0404233e-06,7.2772573e-06,7.3383526e-06,9.097261e-06,3.7964404e-05,5.7571327e-05,5.0029973e-07,-2.1361571e-05,3.3138015e-06,-4.2347736e-05,3
-6.3244945e-05,-1.3744512e-05,-2.4986016e-06,4.087964e-06,9.231502e-06,1.1111328e-05,2.5206793e-05,3.3070417e-05,7.214485e-06,2.9098243e-07,3.6494864e-06,-4.8719634e-05,3
-4.041801e-05,-9.045236e-06,-1.6765787e-05,2.0736156e-06,1.1043931e-05,1.2621846e-05,3.0496144e-06,-6.872629e-06,1.0235988e-05,6.333555e-06,6.8386075e-06,-5.7273577e-05,3
-1.4775444e-06,-8.211263e-07,-3.388641e-05,2.4091567e-06,1.2504626e-05,1.5139459e-05,-1.5918424e-05,-1.912055e-05,1.1243301e-05,1.5733112e-05,1.05312765e-05,-5.6427958e-05,3
3.4441633e-05,3.7103007e-06,-4.5132307e-05,2.0733019e-06,1.2591245e-05,1.4300087e-05,-2.3304867e-05,2.8727695e-06,9.0614785e-06,3.4532226e-05,1.0195565e-05,-2.755152e-05,3
4.149074e-05,2.5348525e-06,-4.6810797e-05,-7.802917e-07,9.737364e-06,9.93588e-06,-2.7166476e-05,3.124436e-05,5.0333165e-06,5.1988547e-05,8.0135105e-06,2.5495214e-05,3
1.5977095e-05,6.730581e-06,-3.8586186e-05,-5.4802267e-06,4.9286673e-06,3.0539354e-06,-3.4217217e-05,4.3334574e-05,1.1730041e-06,6.1388106e-05,5.1600605e-06,7.4513555e-05,3
-1.37327825e-05,2.6536285e-05,-1.6430089e-05,-1.01801625e-05,1.1550785e-06,-2.988766e-06,-3.640033e-05,3.5282876e-05,6.6967704e-07,6.810207e-05,4.48865e-06,9.21441e-05,3
-2.7329132e-05,5.355951e-05,9.082996e-06,-1.1019563e-05,-2.9727002e-07,-3.9959887e-06,-2.8176795e-05,2.1188609e-05,3.1876377e-06,7.515174e-05,4.152939e-06,7.7715435e-05,3
-2.6322601e-05,6.7490495e-05,2.5364372e-05,-7.998431e-06,-6.079867e-07,-4.835364e-06,-1.9785408e-05,6.422939e-06,5.5377504e-06,7.448034e-05,4.4886237e-06,5.3047963e-05,3
-1.7091455e-05,5.4397744e-05,2.4525127e-05,-5.3129993e-06,-7.281585e-07,-8.528174e-06,-1.324036e-05,-8.34273e-06,4.3630293e-06,5.366704e-05,3.649366e-06,3.811575e-05,3
-5.5104224e-06,1.9820296e-05,9.5865435e-06,-6.991647e-06,-1.6205811e-06,-1.1213892e-05,1.8655616e-08,-1.8912171e-05,-1.6867567e-07,9.354841e-06,1.1316131e-06,3.560438e-05,3
5.3158345e-07,-1.341436e-05,-4.0092445e-06,-1.0013086e-05,-2.9314024e-06,-1.1885418e-05,9.584989e-06,-2.9145915e-05,-6.211022e-06,-4.1671326e-05,-3.790426e-07,3.7624937e-05,3
-1.1474742e-06,-2.81856e-05,-4.344943e-06,-1.1356034e-05,-5.461808e-06,-1.0542754e-05,3.037797e-06,-3.0147949e-05,-9.567781e-06,-7.456978e-05,-2.225397e-06,4.0149043e-05,3
-4.8407237e-06,-2.4157724e-05,6.9009557e-06,-7.999202e-06,-7.669516e-06,-8.528693e-06,-7.8734765e-06,-2.4771716e-05,-8.224758e-06,-8.027665e-05,-5.4145435e-06,4.0658957e-05,3
-3.8341946e-06,-8.212554e-06,1.7643308e-05,-2.9638793e-06,-5.9144522e-06,-6.682484e-06,-7.2031517e-06,-3.0977084e-05,-3.3569024e-06,-6.7520115e-05,-7.260898e-06,3.9993927e-05,3
-1.4848733e-06,3.3685358e-06,1.697191e-05,-1.1059515e-07,-3.294531e-06,-5.3398217e-06,4.3773766e-06,-4.9267597e-05,-8.3893394e-07,-3.9657138e-05,-6.085966e-06,4.1007388e-05,3
-6.1852215e-06,2.1930816e-06,4.2153683e-06,-2.7859667e-07,-3.838055e-06,-6.1792e-06,2.048983e-05,-6.252263e-05,-8.3870367e-07,1.4726016e-05,-3.4003892e-06,4.386719e-05,3
-1.759954e-05,-5.360642e-06,-1.4751596e-05,-1.9572408e-06,-6.218033e-06,-9.200619e-06,3.6602283e-05,-5.2950174e-05,-1.8455685e-06,6.810207e-05,-2.0576074e-06,4.672699e-05,3
-2.9013856e-05,-1.6271351e-05,-3.59006e-05,-3.6358856e-06,-8.486422e-06,-1.0543544e-05,5.3050444e-05,-3.0117622e-05,1.008101e-06,8.153001e-05,-2.7290173e-06,4.287282e-05,3
-3.5056997e-05,-3.5574525e-05,-5.2349824e-05,-3.3003391e-06,-1.0925684e-05,-1.0711527e-05,5.875624e-05,-2.6587739e-05,8.3937e-06,5.7024026e-05,-4.407522e-06,3.2640382e-05,3
-3.270768e-05,-5.370275e-05,-5.067133e-05,-9.505994e-07,-1.1746062e-05,-1.2893702e-05,4.5998633e-05,-4.9074486e-05,1.3429411e-05,2.1607837e-05,-7.764518e-06,2.3750732e-05,3
-2.0455256e-05,-5.7731642e-05,-3.506135e-05,1.2312897e-06,-1.0971753e-05,-1.4404478e-05,2.4848561e-05,-6.048319e-05,1.3933194e-05,-1.0787067e-05,-9.4430225e-06,1.6707425e-05,3
2.707366e-06,-4.5647008e-05,-2.0122772e-05,1.5668372e-06,-1.0115295e-05,-1.2558273e-05,5.5448263e-06,-2.9426037e-05,1.2926334e-05,-4.1671326e-05,-6.4217465e-06,9.32842e-06,3
3.7451584e-05,-2.567346e-05,-9.716119e-06,5.595921e-07,-9.0756685e-06,-1.0040668e-05,-3.0165559e-06,2.4962159e-05,9.233888e-06,-6.231679e-05,-2.393377e-06,2.117263e-06,3
7.807053e-05,-7.714103e-06,2.3690266e-06,3.9159224e-07,-6.9050866e-06,-7.1873646e-06,-2.3462246e-06,6.491532e-05,1.5130604e-06,-6.500237e-05,2.92201e-07,-2.2404574e-06,3
0.00010408658,4.034832e-06,1.7475459e-05,5.574373e-08,-3.9109095e-06,-3.6626666e-06,-3.3310408e-07,8.791571e-05,-7.2148614e-06,-5.3252923e-05,6.278879e-07,-3.5768928e-06,3
9.636494e-05,6.7199085e-06,2.6539317e-05,1.0626916e-06,-3.8165356e-07,-8.093658e-07,-5.201799e-06,9.698461e-05,-1.0403758e-05,-2.9418334e-05,1.970671e-06,-3.2348355e-06,3
6.917279e-05,4.705205e-06,2.7042865e-05,2.7410338e-06,3.192174e-06,-1.3810549e-07,-1.9134353e-05,9.4471914e-05,-5.0323406e-06,-1.7232085e-06,1.9706602e-06,-6.081915e-06,3
6.5983084e-05,3.1940488e-06,2.4021578e-05,3.4122822e-06,4.8370102e-06,-4.739416e-07,-2.5849391e-05,9.548404e-05,6.04595e-06,1.8250852e-05,-4.3540535e-08,-8.761146e-06,3
9.653107e-05,6.7183696e-06,2.1839538e-05,2.069341e-06,4.6168775e-06,-1.3133262e-06,-1.5108108e-05,0.00010388154,1.3599408e-05,2.949675e-05,-1.5541951e-06,-7.2441467e-06,3
0.00013194667,1.1753333e-05,2.0496744e-05,1.0620981e-06,3.697821e-06,-1.8170113e-06,2.3471468e-06,0.00010136883,1.2256857e-05,3.386083e-05,-1.7220545e-06,-7.5734897e-06,3
0.0001441991,1.37670095e-05,1.4622021e-05,1.3976487e-06,3.3627728e-06,-1.1457537e-06,8.052956e-06,7.334304e-05,6.2145286e-06,3.7553513e-05,-2.057763e-06,-1.0924119e-05,3
0.000124728,9.9059625e-06,2.3690266e-06,4.2509387e-06,4.5946e-06,-1.1458925e-06,4.1913545e-06,2.752523e-05,3.1934871e-06,4.745662e-05,-8.828302e-07,-1.2260559e-05,3
7.705824e-05,2.35223e-06,-9.212571e-06,6.432832e-06,4.849815e-06,-1.6495788e-06,2.3439488e-06,-1.7621185e-05,4.2008287e-06,6.0045313e-05,-1.3863873e-06,-1.05757135e-05,3
9.917968e-06,-7.38354e-06,-1.5087295e-05,5.089891e-06,2.5595955e-06,-2.1532655e-06,1.2078141e-05,-4.547913e-05,6.047417e-06,6.541648e-05,-2.7291912e-06,-8.890868e-06,3
-5.974005e-05,-1.6447915e-05,-1.37445e-05,2.236308e-06,-6.057687e-07,-3.4962e-06,2.7854903e-05,-5.2188076e-05,7.05476e-06,5.7359724e-05,-2.2256543e-06,-5.8632304e-06,3
-0.00013779053,-2.114821e-05,-7.3662295e-06,5.576702e-07,-1.7333758e-06,-5.5105315e-06,3.6917696e-05,-4.2615644e-05,7.222858e-06,2.6139765e-05,1.2422703e-07,-1.8284975e-06,3
-0.00024219333,-2.5177107e-05,-2.3307523e-06,3.896747e-07,-7.7848193e-07,-7.3570145e-06,3.2216856e-05,-3.858224e-05,6.887409e-06,-2.4215007e-05,1.2991603e-06,2.5419329e-06,3
-0.0003371966,-3.038095e-05,1.1940818e-06,1.5644746e-06,-7.533275e-08,-7.0214573e-06,3.0201598e-05,-3.840937e-05,4.202072e-06,-7.171634e-05,4.5990583e-07,5.5695696e-06,3
-0.00032729408,-3.4242e-05,7.2366543e-06,4.417767e-06,-5.920474e-07,-3.161067e-06,4.2621377e-05,-2.1955122e-05,1.516735e-06,-0.00010176136,-8.828986e-07,6.918712e-06,3
-0.0002081217,-3.3067576e-05,7.068805e-06,7.942456e-06,2.215998e-07,1.7064185e-06,5.7894595e-05,3.2272815e-06,3.1954796e-06,-0.00010813962,-1.0507569e-06,6.9250605e-06,3
-9.851671e-05,-2.9711107e-05,-5.519888e-06,7.438765e-06,2.4806702e-06,2.5455206e-06,5.990773e-05,2.2252034e-06,1.259529e-05,-8.900482e-05,-7.1506804e-07,6.5957074e-06,3
-6.51153e-05,-3.2229364e-05,-2.5997495e-05,5.424429e-06,4.4292083e-06,2.5453774e-06,5.638183e-05,-7.672887e-06,2.1827253e-05,-6.097399e-05,7.9556685e-07,7.441302e-06,3
-6.746578e-05,-3.4244073e-05,-4.1439624e-05,6.5992313e-06,7.4096165e-06,5.5665205e-06,5.92342e-05,2.1873593e-05,2.333815e-05,-3.865004e-05,2.47405e-06,5.2656073e-06,3
-5.470982e-05,-2.585213e-05,-3.4222106e-05,8.948978e-06,1.0737012e-05,1.0266156e-05,5.73868e-05,6.703005e-05,1.4610247e-05,-2.6229196e-05,1.9704942e-06,1.2435701e-06,3
-2.7015283e-05,-8.060631e-06,-9.044722e-06,9.788081e-06,1.2330122e-05,1.00981615e-05,3.825093e-05,7.8784506e-05,-3.6850643e-06,-2.0018775e-05,1.6347874e-06,5.7851685e-07,3
8.4710217e-07,2.1480317e-05,1.3782775e-05,8.612993e-06,9.553669e-06,5.5660867e-06,9.379796e-06,5.8983303e-05,-2.5337358e-05,-1.5151148e-05,-7.151122e-07,2.0955029e-06,3
2.367401e-05,5.7399528e-05,2.6539317e-05,4.9201685e-06,4.7047984e-06,2.0411073e-06,-1.0763173e-05,2.9111152e-05,-3.221892e-05,-6.0872885e-06,-3.4007066e-06,3.612488e-06,3
4.5493824e-05,8.25764e-05,3.896016e-05,-6.1899834e-07,7.812343e-07,1.8731125e-06,-1.7142504e-05,-3.1108978e-06,-2.1308459e-05,1.623666e-05,-3.0650172e-06,3.6188292e-06,3
7.1509865e-05,9.0632646e-05,5.641648e-05,-4.311823e-06,-7.1361427e-07,1.2015702e-06,-1.815066e-05,-2.8786828e-05,-6.2017657e-06,3.184664e-05,-7.1513733e-07,1.6109784e-06,3
8.292302e-05,8.324675e-05,7.52156e-05,-6.661855e-06,6.60613e-07,1.8728193e-06,-1.4291186e-05,-4.069912e-05,1.68741e-06,2.1104288e-05,-2.1159644e-07,-7.78224e-06,3
5.9591388e-05,6.78041e-05,8.629364e-05,-7.501241e-06,1.8264974e-06,5.2296573e-06,-1.3788696e-05,-5.7311194e-05,1.3519733e-06,2.9765704e-06,-1.2187005e-06,-2.321803e-05,3
2.400676e-05,5.3032847e-05,8.629364e-05,-6.494285e-06,1.2951213e-06,8.418646e-06,-2.7217695e-05,-8.8526154e-05,5.1299014e-07,-1.3875099e-06,-4.0721466e-06,-3.3282646e-05,3
1.2760271e-05,3.4065357e-05,7.622269e-05,-4.312385e-06,2.3046512e-06,6.4043065e-06,-4.333228e-05,-0.00011856617,3.7023901e-06,8.347745e-06,-5.582795e-06,-3.092642e-05,3
2.0312893e-05,1.3755078e-05,6.346615e-05,-3.808978e-06,3.1951024e-06,5.2943386e-07,-4.484398e-05,-0.00010664388,5.045449e-06,2.2111384e-05,-4.911407e-06,-2.4206116e-05,3
2.1822943e-05,2.1729552e-06,6.2123356e-05,-4.6483624e-06,1.1475341e-06,-2.492e-06,-2.9906456e-05,-2.808544e-05,3.5350715e-06,3.0168147e-05,-4.4078674e-06,-1.7485812e-05,3
1.2254944e-05,-5.7164816e-06,6.29626e-05,-4.1449543e-06,-2.767652e-06,-2.9956984e-06,-1.295474e-05,6.07118e-05,1.5211472e-06,2.9161052e-05,-4.575724e-06,-1.1772605e-05,3
4.029737e-06,-1.4780865e-05,3.7617367e-05,-3.305848e-06,-6.538713e-06,-3.1636973e-06,-2.0455948e-06,7.582322e-05,3.464706e-07,2.1943535e-05,-5.414976e-06,-7.73789e-06,3
5.04308e-07,-3.7608886e-05,-3.4389956e-05,-1.9631914e-06,-8.718998e-06,-4.1709427e-06,9.534945e-06,2.3794946e-05,-6.535079e-06,3.983666e-06,-6.0863813e-06,-3.7031764e-06,3
-8.390812e-07,-6.580808e-05,-0.0001027046,5.544096e-07,-8.999881e-06,-4.6746422e-06,3.0179343e-05,-2.588344e-05,-2.2312639e-05,-3.0593277e-05,-7.429181e-06,1.6743301e-06,3
-2.0146201e-06,-6.2451625e-05,-0.00011193631,3.407708e-06,-7.904984e-06,-4.5069446e-06,4.93131e-05,-4.3334774e-05,-3.70831e-05,-7.205204e-05,-6.422093e-06,8.058931e-06,3
-5.8757496e-06,-2.8378754e-05,-8.608752e-05,5.4217617e-06,-7.5082444e-06,-2.3250539e-06,5.90473e-05,-3.6280122e-05,-4.3796797e-05,-0.00010108995,-3.904361e-06,9.743751e-06,3
-1.4268809e-05,-1.2757308e-08,-7.0309696e-05,3.4074335e-06,-6.8143e-06,-3.1101496e-07,6.2067535e-05,-1.5965383e-05,-4.2453732e-05,-9.974716e-05,-3.0651217e-06,7.735889e-06,3
-1.5947899e-05,1.0729067e-05,-6.409927e-05,-1.62818e-06,-5.592329e-06,1.8708716e-06,5.80381e-05,3.2097404e-07,-2.9696917e-05,-6.684872e-05,-2.8972795e-06,1.0763503e-05,3
2.1792205e-06,1.341413e-05,-5.73853e-05,-4.9853015e-06,-4.1329354e-06,4.220608e-06,4.7630394e-05,1.0564756e-05,-1.25760225e-05,-2.4550704e-05,-1.8901899e-06,2.4869163e-05,3
3.373428e-05,1.4756397e-05,-4.5971556e-05,-4.6497375e-06,-2.0872255e-06,5.8989463e-06,3.6215588e-05,2.8529601e-05,-2.1690946e-06,3.647967e-06,-2.1170425e-07,4.8374382e-05,3
4.716162e-05,9.72039e-06,-1.5255144e-05,-4.817724e-06,-2.9400974e-06,4.7238495e-06,2.5975736e-05,4.8005088e-05,-1.6652707e-06,1.8418701e-05,1.239885e-07,7.876142e-05,3
2.450137e-05,-1.6938852e-06,1.3279227e-05,-8.174842e-06,-5.9869362e-06,2.2059555e-06,9.02191e-06,6.5130684e-05,-6.196923e-06,4.6617373e-05,-7.152656e-07,0.00010444867,3
-2.1872575e-06,-1.2436764e-05,1.3614926e-05,-1.2035511e-05,-8.762913e-06,-1.4868821e-06,-1.1960297e-05,7.6213706e-05,-1.156782e-05,0.00010536461,-7.1527165e-07,0.00010227295,3
1.1691253e-06,-1.6465674e-05,-3.1699983e-06,-1.539263e-05,-1.1681932e-05,-4.172624e-06,-3.3613902e-05,7.554728e-05,-1.2574639e-05,0.00015823712,-1.0509756e-06,7.40806e-05,3
1.9967638e-05,-1.3444917e-05,-1.0387515e-05,-1.7071256e-05,-1.3737927e-05,-4.8441775e-06,-6.114223e-05,6.514559e-05,-9.720921e-06,0.00016948301,-7.152833e-07,4.2699114e-05,3
2.4331115e-05,-7.402873e-06,-9.044722e-06,-1.707139e-05,-1.2088563e-05,-3.5015385e-06,-8.212443e-05,4.8701335e-05,-8.881396e-06,0.0001404451,2.9180802e-07,1.8199444e-05,3
8.888383e-06,-3.039322e-06,-1.7269334e-05,-1.4721634e-05,-9.319485e-06,-4.8040874e-07,-7.641861e-05,3.8299648e-05,-8.209716e-06,9.495795e-05,6.2750047e-07,1.4208375e-06,3
