emg1,emg2,emg3,emg4,emg5,emg6,emg7,emg8,emg9,emg10,emg11,emg12,label
3.971416e-06,1.1443821e-05,1.6784924e-07,5.280574e-07,-6.775917e-07,6.015462e-06,5.7741054e-06,8.696553e-06,-1.0157755e-06,-2.8768183e-05,7.708371e-07,-8.427708e-05,4
3.4684144e-06,9.932749e-06,3.3569847e-07,6.9666766e-07,-3.3320694e-06,4.169589e-06,8.796015e-06,1.306313e-05,-3.1978086e-06,-3.0110978e-05,2.1136727e-06,-8.1759346e-05,4
7.833041e-06,9.260924e-06,1.6784924e-07,8.6527814e-07,-4.6457844e-06,4.5057554e-06,1.1817926e-05,1.6758317e-05,-3.5334992e-06,-2.8936032e-05,1.1066182e-06,-7.789881e-05,4
1.32047635e-05,9.092645e-06,1.6784924e-07,1.8731338e-06,-3.699545e-06,4.3383748e-06,1.2489944e-05,1.5753732e-05,-2.5263932e-06,-2.977528e-05,1.2745087e-06,-7.940945e-05,4
1.6394444e-05,7.749425e-06,1.6784924e-06,3.8880826e-06,-1.4863282e-06,2.6603514e-06,1.4672606e-05,1.35742075e-05,-3.533478e-06,-3.1453772e-05,1.7780991e-06,-7.6556025e-05,4
1.6898537e-05,4.559862e-06,2.1820401e-06,5.5673336e-06,1.2282725e-06,4.7877825e-07,1.6687422e-05,1.3744579e-05,-4.204861e-06,-3.1453772e-05,4.353464e-07,-6.161744e-05,4
1.3877796e-05,6.9890365e-07,5.035477e-07,5.232393e-06,3.6851595e-06,1.4863434e-06,1.8198687e-05,1.8279037e-05,-2.8620539e-06,-2.7593238e-05,2.6753867e-07,-3.241167e-05,4
8.003617e-06,-2.4906583e-06,1.6784924e-07,4.5617526e-06,4.387799e-06,4.0045506e-06,2.1220596e-05,2.2477803e-05,2.509138e-06,-2.289346e-05,9.3897586e-07,3.4560173e-05,4
4.311479e-06,-3.3303295e-06,1.1749447e-06,3.7232612e-06,2.5704062e-06,3.5014732e-06,2.0885522e-05,2.4326688e-05,5.5304417e-06,-2.054357e-05,9.977196e-08,0.00014064088,4
3.8084752e-06,-1.9879615e-06,1.5106432e-06,4.898961e-06,-1.7603179e-07,2.159148e-06,1.752916e-05,2.8525466e-05,3.8519684e-06,-2.1214968e-05,7.71209e-07,0.00021348745,4
3.976868e-06,3.2149412e-06,1.6784924e-06,6.07466e-06,-1.487516e-06,3.166715e-06,1.9543975e-05,3.524199e-05,1.8377976e-06,-2.1550666e-05,1.778346e-06,0.0002044236,4
4.4809594e-06,7.4107493e-06,3.3569847e-06,6.2432628e-06,-9.550853e-07,4.174281e-06,2.4915777e-05,4.2294218e-05,1.5021208e-06,-1.852938e-05,1.1069889e-06,0.00014030519,4
3.4744064e-06,6.7389283e-06,4.867628e-06,5.23692e-06,-8.837082e-09,5.1818456e-06,2.7601985e-05,4.800366e-05,1.5935063e-07,-1.4500998e-05,-7.3931227e-07,7.2494106e-05,4
-1.0569787e-06,2.7101244e-06,5.2033265e-06,4.2305755e-06,-3.131598e-07,5.1823163e-06,2.7602608e-05,5.052397e-05,-2.526213e-06,-1.0976164e-05,-9.071205e-07,3.1371037e-05,4
-4.9169703e-06,2.411324e-08,6.0425727e-06,2.5528345e-06,-9.557388e-07,4.511391e-06,2.8106779e-05,4.6833866e-05,-4.2046786e-06,-8.458425e-06,-6.783282e-08,1.4082568e-05,4
-6.091371e-06,5.2724056e-07,5.5390246e-06,2.2178856e-06,-1.7733633e-07,4.5118622e-06,2.9618044e-05,4.8682792e-05,-5.547445e-06,-7.787028e-06,1.00057804e-07,9.718488e-06,4
-5.2515843e-06,2.3270353e-08,4.3640803e-06,1.3793888e-06,2.1954332e-08,4.3444843e-06,3.196856e-05,6.64774e-05,-5.211717e-06,-8.9619725e-06,-2.3560165e-07,6.697201e-06,4
-2.9011535e-06,-2.3270393e-06,3.524834e-06,-1.305058e-07,-1.6277862e-06,2.834313e-06,3.264058e-05,8.83004e-05,-4.3724413e-06,-9.969067e-06,1.0013884e-07,4.0116124e-06,4
-5.507223e-07,-4.6773484e-06,1.6784924e-06,-2.8153472e-06,-4.0385144e-06,-1.8653333e-08,3.029131e-05,9.03172e-05,-6.050902e-06,-9.801218e-06,-1.0747667e-06,2.1652713e-06,4
-1.3894283e-06,-5.517015e-06,-1.6784924e-07,-2.4789015e-06,-5.5176506e-06,-1.8645234e-06,2.5927857e-05,6.346392e-05,-7.0579626e-06,-5.4371385e-06,-1.9139713e-06,-2.870206e-06,4
-3.570928e-06,-6.18883e-06,1.6784924e-07,8.788296e-07,-5.3211156e-06,-3.2068453e-06,2.5592783e-05,1.2440372e-05,-6.3865314e-06,2.6973555e-07,1.00259875e-07,-9.416326e-06,4
-4.2417837e-06,-5.1821535e-06,2.5177385e-06,4.5722586e-06,-2.8642116e-06,-5.556262e-06,2.4754161e-05,-4.0597366e-05,-6.3864945e-06,3.2910218e-06,2.1144901e-06,-1.1430517e-05,4
-2.5627508e-06,-1.6577377e-06,5.5390246e-06,6.251495e-06,-1.3219933e-06,-6.8985833e-06,2.1565644e-05,-7.131115e-05,-5.7150587e-06,3.1231725e-06,9.395852e-07,-9.248477e-06,4
-4.912102e-06,1.1952818e-06,7.721065e-06,5.580842e-06,-6.219772e-07,-6.0588654e-06,1.9552079e-05,-6.795153e-05,-4.372226e-06,-4.0166148e-07,1.0038027e-07,-6.5628888e-06,4
-8.939944e-06,3.556198e-07,9.231708e-06,4.5744896e-06,-1.1413662e-08,-3.8763505e-06,1.6195718e-05,-3.740033e-05,-3.029391e-06,-3.926495e-06,-6.7429745e-08,-5.3879444e-06,4
-8.603707e-06,-2.6660837e-06,1.8966964e-05,3.2324363e-06,1.0273228e-06,-1.1902895e-06,1.45178465e-05,-3.1564368e-06,-2.0222526e-06,-5.772837e-06,-2.3523982e-07,-7.737834e-06,4
-6.588978e-06,-2.6664995e-06,4.213016e-05,1.8903844e-06,5.523303e-07,-1.4872122e-08,1.502202e-05,8.427813e-06,-2.8614554e-06,-6.444234e-06,-2.249391e-06,-1.1430517e-05,4
-7.427685e-06,-9.884219e-07,6.1264975e-05,5.4832964e-07,-1.2047612e-08,-1.8224753e-07,1.4519093e-05,-1.104004e-05,-3.364957e-06,-7.1156305e-06,-3.5921441e-06,-1.2605462e-05,4
-9.273488e-06,8.575042e-07,6.0593575e-05,-4.580249e-07,6.910571e-07,-5.1747173e-07,1.2841227e-05,-3.1179283e-05,-2.357815e-06,-5.269289e-06,-3.2564055e-06,-1.1430517e-05,4
-1.1958539e-05,1.3606368e-06,4.4815748e-05,-4.572863e-07,1.3909417e-06,-1.1883948e-06,9.484865e-06,-3.8897677e-05,-3.1970126e-06,-3.2550986e-06,-2.58497e-06,-1.1094819e-05,4
-1.1958002e-05,-6.5396694e-07,2.2995346e-05,-1.2085052e-07,2.0015145e-06,-2.3628656e-06,6.464201e-06,-4.8630256e-05,-6.3860984e-06,-3.087249e-06,-3.2563262e-06,-1.2101914e-05,4
-7.929082e-06,-3.0042702e-06,-1.1749447e-06,-2.9735515e-06,1.1940404e-06,-2.6980892e-06,4.618484e-06,-6.306261e-05,-7.393141e-06,-6.108535e-06,-3.2562868e-06,-1.2269763e-05,4
-4.2358624e-06,-6.697366e-06,-2.6688029e-05,-8.343991e-06,-2.8817982e-07,-2.1940675e-06,1.0942734e-06,-4.8289185e-05,-7.560939e-06,-1.2486807e-05,-5.7066137e-07,-1.2437612e-05,4
-5.4264336e-07,-7.5370244e-06,-4.5822842e-05,-1.2035938e-05,-2.0274942e-06,-1.6900458e-06,-2.7656351e-06,-4.4945673e-07,-9.575076e-06,-1.7186585e-05,6.04324e-07,-1.294116e-05,4
3.9898214e-06,-3.3412048e-06,-5.8075835e-05,-1.1867354e-05,-3.6741474e-06,-2.5288157e-06,-6.961244e-06,3.5472982e-05,-8.232225e-06,-1.6515189e-05,4.3651426e-07,-1.2269763e-05,4
9.193684e-06,2.700957e-06,-6.932174e-05,-1.1195223e-05,-1.9672984e-06,-2.6961895e-06,-6.2892245e-06,3.547569e-05,-6.7895155e-07,-8.458425e-06,1.1079495e-06,-1.0255572e-05,4
1.339045e-05,5.5539826e-06,-7.687495e-05,-9.5159985e-06,-1.3924854e-08,-2.527865e-06,-1.2531244e-06,1.3154454e-05,7.210021e-06,2.6973555e-07,1.1079886e-06,-8.57708e-06,4
1.0201849e-05,4.7143267e-06,-7.872129e-05,-7.165377e-06,-4.855669e-07,-2.5273896e-06,2.4401818e-06,-9.8381715e-06,9.559971e-06,2.6196249e-06,4.3663167e-07,-7.5699845e-06,4
2.8170168e-06,5.1768694e-07,-6.730754e-05,-6.325401e-06,-1.9679198e-06,-1.8555178e-06,1.433711e-06,-2.9809506e-05,6.538746e-06,9.411325e-07,1.1080666e-06,-8.744929e-06,4
-2.889323e-06,-2.671858e-06,-3.6758982e-05,-6.828218e-06,-3.8750745e-06,-1.1836437e-06,-7.631078e-08,-6.102673e-05,1.839031e-06,-1.0730583e-06,4.3670957e-07,-1.09269695e-05,4
-4.231582e-06,-3.8472112e-06,2.0141908e-06,-8.50598e-06,-4.6823484e-06,-8.223546e-09,9.21614e-08,-0.0001019792,6.6415106e-07,-7.3736e-07,-6.679957e-08,-1.1430517e-05,4
-1.7133106e-06,-2.3369764e-06,2.5680933e-05,-1.0351594e-05,-3.9827273e-06,2.0064429e-06,3.6176186e-06,-0.00013252502,1.8391621e-06,3.2910218e-06,1.01089206e-07,-1.075912e-05,4
2.4834537e-06,1.6909972e-06,2.2995346e-05,-8.840222e-06,-3.3721387e-06,4.8603574e-06,6.6395287e-06,-0.00015333557,3.5177225e-06,7.3194037e-06,1.4439199e-06,-1.059127e-05,4
3.6589306e-06,4.0404816e-06,-1.1917296e-05,-4.139716e-06,-2.8365548e-06,5.7000802e-06,1.7725248e-06,-0.0001699499,5.867681e-06,8.997896e-06,1.7796585e-06,-1.09269695e-05,4
1.980971e-06,3.3686772e-06,-5.035477e-05,-1.1060897e-07,-3.3119427e-06,2.175722e-06,-9.137052e-06,-0.00015198726,3.853561e-06,9.333594e-06,1.4439971e-06,-1.0087723e-05,4
-8.719328e-07,2.8647244e-06,-5.723659e-05,2.2400052e-06,-6.058337e-06,-2.1878798e-06,-1.8703837e-05,-6.235301e-05,-1.5175423e-06,7.9908e-06,1.012436e-07,-9.248477e-06,4
-5.35703e-07,4.3749624e-06,-3.6423284e-05,3.2478247e-06,-7.704726e-06,-3.8658945e-06,-2.2395898e-05,4.608038e-05,-2.8602635e-06,3.6267202e-06,-1.5772109e-06,-9.752024e-06,4
5.1717025e-06,9.074336e-06,-1.09102e-05,5.26274e-06,-7.005237e-06,-2.3547739e-06,-2.105248e-05,8.26743e-05,-1.0138465e-06,-1.7444554e-06,-1.5771726e-06,-9.919874e-06,4
7.857821e-06,1.2095217e-05,6.5461204e-06,9.795392e-06,-5.387546e-06,1.0026889e-06,-1.803057e-05,4.8435835e-05,4.968736e-07,-6.108535e-06,-9.057384e-07,-7.066437e-06,4
3.9978195e-06,1.0080624e-05,1.0574502e-05,1.4328043e-05,-4.5161296e-06,3.5209048e-06,-1.9037043e-05,8.826207e-06,-2.1886356e-06,-1.164756e-05,-5.7000216e-07,-5.5557935e-06,4
3.8305006e-06,8.233879e-06,6.881819e-06,1.8021448e-05,-2.1382143e-06,4.192781e-06,-2.4911144e-05,-8.2916185e-06,-7.3918823e-06,-1.7186585e-05,1.444227e-06,-5.7236425e-06,4
9.2022065e-06,9.408423e-06,8.3924615e-06,1.8693565e-05,3.1872895e-07,2.6826162e-06,-2.944245e-05,-3.548039e-05,-1.2259429e-05,-1.7857983e-05,3.458457e-06,-5.052246e-06,4
1.0209832e-05,1.1254361e-05,1.560998e-05,1.4498053e-05,1.3580575e-06,8.3675275e-07,-3.4645152e-05,-8.969288e-05,-1.3602142e-05,-1.0976164e-05,2.787097e-06,-5.3879444e-06,4
7.5247735e-06,1.7296534e-05,2.5345234e-05,5.9384597e-06,1.7217174e-06,-1.6986455e-07,-3.4140983e-05,-0.00012963818,-1.0245072e-05,-2.0801538e-06,1.1086429e-06,-6.3950397e-06,4
5.84681e-06,2.2835156e-05,3.289845e-05,-6.3138177e-06,1.6609251e-06,-1.1764807e-06,-2.6419295e-05,-0.00011956441,-7.895098e-06,7.7328326e-07,-9.0551026e-07,-6.5628888e-06,4
3.4974485e-06,2.0820567e-05,3.709468e-05,-1.8398247e-05,6.861304e-07,-1.3438527e-06,-1.567632e-05,-8.129196e-05,-8.230709e-06,-2.4158524e-06,-1.5768685e-06,-4.04515e-06,4
1.6516358e-06,1.6456084e-05,4.36408e-05,-2.4607953e-05,-7.966179e-07,1.6727057e-07,-8.1224825e-06,-4.0501753e-05,-9.069866e-06,-6.7799324e-06,-2.3403777e-07,-2.0309596e-06,4
1.6521636e-06,1.2763004e-05,5.723659e-05,-2.1082404e-05,-1.6966525e-06,1.6774997e-07,-2.918531e-06,2.9740395e-06,-8.901926e-06,-7.954877e-06,7.7309585e-07,-1.3595627e-06,4
-3.8863336e-06,6.0486354e-06,6.243992e-05,-1.2857075e-05,-5.0212707e-06,-8.3886545e-07,1.03374674e-07,3.4364693e-05,-9.069685e-06,-6.444234e-06,-5.696616e-07,-1.3595627e-06,4
-1.5131706e-05,5.66342e-09,4.884413e-05,-6.8137892e-06,-9.525372e-06,-5.0268665e-07,1.03997344e-07,4.1585066e-05,-8.566044e-06,-4.4300427e-06,-2.3392514e-07,-6.881657e-07,4
-1.7648916e-05,-1.0018281e-06,3.0716412e-05,-4.127488e-06,-1.1264647e-05,-1.1736037e-06,-5.66776e-07,3.9070186e-05,-3.8661715e-06,-3.087249e-06,1.7803043e-06,1.9974214e-06,4
-9.927326e-06,-4.694909e-06,1.560998e-05,-1.7768874e-06,-8.882327e-06,1.8204335e-09,7.766426e-07,4.4108525e-05,5.7013312e-06,-1.7444554e-06,1.2767925e-06,4.850859e-06,4
-3.2128312e-06,-1.5773356e-05,8.392462e-07,-9.7684634e-08,-5.49758e-06,2.0164907e-06,4.13425e-06,6.0728467e-05,1.3086795e-05,1.0188633e-07,-5.6951217e-07,3.3402164e-06,4
-2.3730572e-06,-2.5005458e-05,-9.567407e-06,2.3872323e-07,-3.0406181e-06,1.5134242e-06,7.995404e-06,7.953046e-05,1.5436783e-05,1.948228e-06,-5.6947493e-07,1.5108033e-07,4
-4.722423e-06,-2.7187894e-05,-1.2252995e-05,-4.3196377e-07,-2.5045738e-06,6.7465993e-07,8.4995745e-06,9.3129136e-05,1.627613e-05,4.4659664e-06,7.7335716e-07,-1.3595627e-06,4
-2.204158e-06,-2.3495606e-05,-8.89601e-06,-1.4383517e-06,-2.644727e-06,8.429898e-07,6.4860046e-06,0.00010286728,1.9297519e-05,7.1515547e-06,-2.3370181e-07,-1.0238647e-06,4
2.160447e-06,-1.5607086e-05,-6.210422e-06,-2.7804394e-06,-3.376896e-06,1.6827158e-06,7.829423e-06,0.00011797661,2.2990303e-05,8.662198e-06,-1.4086088e-06,3.1893032e-07,4
3.5037642e-06,-1.0068455e-05,-5.5390246e-06,-5.129621e-06,-2.0015414e-06,2.522444e-06,1.2529822e-05,0.00013745001,2.1983315e-05,8.830047e-06,-2.3362796e-07,1.6617233e-06,4
2.3293442e-06,-5.5369196e-06,-1.8463417e-06,-7.1431064e-06,1.0473753e-06,2.8586244e-06,1.6223128e-05,0.00015188796,1.2919561e-05,9.333594e-06,1.4449008e-06,1.9974214e-06,4
2.6655657e-06,3.37413e-07,4.1962307e-06,-6.806704e-06,1.993703e-06,3.1948039e-06,1.6727297e-05,0.00015289796,3.5201117e-06,1.1012086e-05,2.4520336e-06,4.867793e-07,4
4.008883e-06,4.7011e-06,7.888914e-06,-5.798904e-06,6.8353734e-07,4.53808e-06,1.3874482e-05,0.00013309468,-6.760099e-07,1.0676388e-05,2.1163723e-06,-6.881657e-07,4
5.855748e-06,7.0505976e-06,8.224612e-06,-4.791106e-06,-6.316934e-07,3.8671637e-06,8.839628e-06,0.000105738174,6.6689427e-07,7.655102e-06,4.3791687e-07,9.903263e-07,4
8.03831e-06,6.714509e-06,8.89601e-06,-2.272665e-06,-1.6995526e-06,1.5177566e-06,2.2941294e-06,7.670319e-05,5.031087e-06,2.2839265e-06,-6.559461e-08,3.0045182e-06,4
8.710229e-06,6.0427224e-06,7.721065e-06,1.5885691e-06,-2.002558e-06,7.5958235e-09,-4.08352e-06,-1.6882993e-07,7.045391e-06,-4.7657413e-06,-1.2405031e-06,4.0116124e-06,4
7.3679576e-06,4.699538e-06,-2.853437e-06,5.9533486e-06,-3.821402e-06,1.7592723e-07,-4.2507468e-06,-0.00010372887,3.352823e-06,-1.0304766e-05,-2.5832608e-06,3.8437634e-06,4
7.2006287e-06,6.5454906e-06,-1.6617074e-05,1.0653827e-05,-5.057104e-06,8.478078e-07,1.2889014e-06,-0.00012873545,-8.432917e-07,-1.181541e-05,-3.0867716e-06,2.6688194e-06,4
7.872547e-06,1.04056335e-05,-2.0813306e-05,1.4850756e-05,-2.0030598e-06,2.5267825e-06,5.4857533e-06,-6.276775e-05,-2.0181176e-06,-1.2151108e-05,-3.2545843e-06,3.3402164e-06,4
9.55156e-06,1.5440723e-05,-1.8463415e-05,1.5355003e-05,1.7170546e-06,4.3736077e-06,6.157772e-06,1.0179183e-06,-3.8077275e-09,-1.0976164e-05,-2.079605e-06,3.3402164e-06,4
1.2909065e-05,1.8629471e-05,-1.9302663e-05,1.1663015e-05,4.174041e-06,5.0454864e-06,4.144205e-06,1.4280975e-05,1.6416331e-07,-1.1144013e-05,-5.68926e-07,6.546283e-07,4
1.2909585e-05,1.7118444e-05,-2.3163195e-05,7.2996313e-06,5.3818103e-06,2.8639308e-06,7.878417e-07,-6.1936607e-06,-3.3926227e-07,-1.1311862e-05,-6.534102e-08,-1.6768675e-08,4
6.1961346e-06,8.725593e-06,-2.5345234e-05,3.2719438e-06,4.737776e-06,5.145232e-07,-1.2257296e-06,-5.0670733e-05,-1.7128929e-07,-1.0640465e-05,6.0609193e-07,2.3331204e-06,4
-4.209998e-06,-3.8634857e-06,-2.7191576e-05,-4.2004407e-07,2.9985367e-06,-8.277862e-07,2.8553404e-07,-0.00012838194,-1.7116382e-07,-6.444234e-06,1.2775238e-06,3.8437634e-06,4
-1.4616133e-05,-1.8466755e-05,-2.635233e-05,-3.4406378e-06,1.0172357e-06,-4.5199854e-06,-1.2244864e-06,-0.00022136743,-3.192323e-06,-6.596297e-08,-1.4080274e-06,3.3402164e-06,4
-2.0154639e-05,-3.4916364e-05,-2.1316853e-05,-4.7827393e-06,2.0528813e-07,-8.715731e-06,-7.937835e-06,-0.00028027952,-1.0241863e-05,3.458871e-06,-5.6042236e-06,2.8366694e-06,4
-2.0993366e-05,-4.7001893e-05,-8.5603115e-06,-3.439254e-06,-2.330488e-08,-9.218798e-06,-1.4483334e-05,-0.0002792694,-2.9040848e-05,6.3123084e-06,-5.4363372e-06,5.1865572e-06,4
-2.1999947e-05,-4.4652388e-05,9.231708e-06,4.219686e-07,-3.2604774e-07,-7.204121e-06,-1.7671846e-05,-0.00022085488,-5.42181e-05,1.1179935e-05,-3.7578095e-06,7.0328992e-06,4
-1.931384e-05,-3.206408e-05,1.9302663e-05,3.1082463e-06,1.7153741e-06,-5.860843e-06,-1.8342624e-05,-0.00013743079,-6.294613e-05,1.2019182e-05,-3.589925e-06,7.872146e-06,4
-1.19279575e-05,-1.9140069e-05,2.5177385e-06,5.290976e-06,4.6759237e-06,-5.0211133e-06,-1.5992111e-05,-5.753154e-05,-4.7168167e-05,8.997896e-06,-3.4220398e-06,8.711391e-06,4
-3.870677e-06,-1.276218e-05,-4.179446e-05,7.641553e-06,6.051739e-06,-5.8598735e-06,-1.0956014e-05,1.0508668e-06,-1.8969358e-05,5.473062e-06,-1.9113613e-06,8.543542e-06,4
1.8367128e-06,-1.20911645e-05,-7.016098e-05,6.635144e-06,5.4075063e-06,-7.3700317e-06,-9.276901e-06,7.935716e-06,6.879561e-06,3.6267202e-06,-6.4985045e-08,9.2149385e-06,4
4.8585157e-06,-1.1420148e-05,-3.2394903e-05,3.278845e-06,2.1576395e-06,-9.719438e-06,-1.1122621e-05,1.06243415e-05,2.3161077e-05,2.6196249e-06,7.7429615e-07,9.718488e-06,4
4.355483e-06,-9.574187e-06,4.36408e-05,2.9438324e-06,8.683997e-09,-9.886801e-06,-1.2296944e-05,6.786397e-05,3.105013e-05,2.2839265e-06,1.7814273e-06,8.039995e-06,4
1.5025607e-06,-9.742415e-06,7.905699e-05,8.315692e-06,1.7142746e-06,-8.207822e-06,-1.2296323e-05,0.00014121713,3.323231e-05,4.1302683e-06,2.4528583e-06,7.0328992e-06,4
9.995273e-07,-5.5465644e-06,5.287251e-05,1.4694647e-05,4.3391374e-06,-7.2002417e-06,-1.2127854e-05,0.00017411864,3.2057513e-05,4.4659664e-06,2.1171952e-06,7.704295e-06,4
3.0142323e-06,1.4762816e-05,1.0070954e-05,1.5366726e-05,4.707986e-06,-7.199756e-06,-9.1059455e-06,0.00015632967,3.2393353e-05,-1.0730583e-06,1.4458321e-06,1.0557734e-05,4
4.525389e-06,4.2625412e-05,-1.1078049e-05,8.653438e-06,2.3851292e-06,-8.709912e-06,-4.573397e-06,0.00010832787,3.3736294e-05,-9.1298225e-06,1.1101689e-06,1.374687e-05,4
2.8474096e-06,5.0681792e-05,-1.1917296e-05,-2.75963e-06,6.459169e-07,-8.0380305e-06,-8.8009205e-07,6.7207875e-05,3.2393647e-05,-1.4836696e-05,-5.682893e-07,1.3914719e-05,4
-1.0126085e-06,3.339295e-05,-8.89601e-06,-1.2829903e-05,1.0148306e-06,-5.519806e-06,1.3025696e-06,4.354421e-05,2.735832e-05,-1.6515189e-05,-1.2396506e-06,1.2739773e-05,4
-6.215423e-06,1.1572172e-05,-8.89601e-06,-1.8536099e-05,3.2238347e-06,-4.1765247e-06,4.156628e-06,1.7362812e-05,1.8966008e-05,-1.5172394e-05,-2.078863e-06,1.29076225e-05,4
-1.1586086e-05,8.2944575e-07,-1.1581597e-05,-2.0381762e-05,5.3451627e-06,-3.0010954e-06,2.4787535e-06,3.937962e-06,1.1245095e-05,-1.2486807e-05,-2.7502244e-06,1.576106e-05,4
-1.9810186e-05,-6.815722e-07,-1.3595788e-05,-2.0213234e-05,4.539196e-06,-1.4899659e-06,-1.8847052e-06,1.7033297e-05,7.888264e-06,-1.0976164e-05,-2.582341e-06,1.7271703e-05,4
-2.5684401e-05,3.2514941e-07,-1.3092241e-05,-1.8534069e-05,4.7339427e-06,-8.1808116e-07,-4.0661257e-06,1.7372096e-05,4.8671327e-06,-7.6191786e-06,-2.3241775e-07,1.576106e-05,4
-1.7962826e-05,4.5210054e-06,-8.224612e-06,-1.2322969e-05,8.365919e-06,-8.175943e-07,-1.5477667e-06,-7.298636e-06,-6.717354e-07,6.05434e-07,1.7818086e-06,1.106128e-05,4
4.193787e-06,1.2745247e-05,1.1749447e-06,2.6639697e-07,1.0413456e-05,1.899877e-07,6.6774655e-06,-1.904497e-05,-1.19174765e-05,6.3123084e-06,2.6210878e-06,4.850859e-06,4
2.2322014e-05,1.979454e-05,7.888914e-06,1.4198557e-05,1.0104588e-05,1.9047486e-07,1.42313e-05,-1.2498328e-06,-3.0045036e-05,5.97661e-06,7.747809e-07,-2.0309596e-06,4
2.2322525e-05,2.0633417e-05,7.721065e-06,2.1416747e-05,8.533244e-06,-1.8232288e-06,1.5574717e-05,1.2516929e-05,-4.4815606e-05,3.1231725e-06,-1.0715271e-06,-7.402135e-06,4
1.0237889e-05,1.1569184e-05,1.5106432e-06,2.108172e-05,6.048916e-06,-3.3333845e-06,1.2554049e-05,-7.286153e-06,-4.6829635e-05,2.2839265e-06,-2.414287e-06,-9.584175e-06,4
4.6993737e-06,-3.034071e-06,-4.3640803e-06,1.90682e-05,3.72579e-06,-3.8364437e-06,4.665756e-06,-5.243446e-05,-3.4408626e-05,5.3052127e-06,-4.4284443e-06,-9.080628e-06,4
8.560414e-06,-1.0587656e-05,-5.2033265e-06,1.5711885e-05,3.329397e-06,-3.8359562e-06,-3.558239e-06,-8.1972794e-05,-1.7623539e-05,7.487253e-06,-4.0927125e-06,-8.744929e-06,4
1.124651e-05,-8.741685e-06,-3.8605326e-06,1.1180626e-05,3.3628726e-06,-2.9962232e-06,-7.75385e-06,-5.561731e-05,5.043452e-07,5.6409112e-06,-2.4141855e-06,-1.0423421e-05,4
9.232826e-06,-6.5600143e-06,-2.853437e-06,7.824309e-06,2.8860215e-06,-9.815432e-07,-6.242587e-06,1.8743054e-05,1.8464381e-05,3.6267202e-06,-9.0350886e-07,-1.3612557e-05,4
7.8905405e-06,-7.735327e-06,-4.1962307e-06,3.7965933e-06,3.161031e-06,6.9743805e-07,-2.2135846e-06,8.370387e-05,2.8871205e-05,1.1089817e-06,7.750177e-07,-1.747309e-05,4
9.4016905e-06,-1.0756981e-05,-9.735256e-06,2.7242564e-07,4.0338173e-06,3.8870603e-06,3.1582088e-06,0.0001013312,2.585009e-05,-1.0730583e-06,9.429003e-07,-2.0830073e-05,4
1.326273e-05,-1.2100143e-05,-1.2924392e-05,-2.244647e-06,5.067543e-06,7.580232e-06,9.5371e-06,8.891352e-05,1.25901715e-05,-4.4300427e-06,1.0368871e-07,-2.3179964e-05,4
1.6116674e-05,-1.0757716e-05,-2.5177385e-06,-7.783009e-06,7.1889012e-06,9.762762e-06,1.35661e-05,7.699941e-05,-3.340453e-07,-9.1298225e-06,1.03722094e-07,-2.4858457e-05,4
1.4942234e-05,-7.4010977e-06,1.5106431e-05,-1.4999862e-05,7.222506e-06,1.0938195e-05,1.591661e-05,7.465269e-05,-5.537196e-06,-1.4165299e-05,1.6143983e-06,-2.2676415e-05,4
1.2257152e-05,-5.722971e-06,2.6855878e-05,-1.8524033e-05,6.074125e-06,1.2617176e-05,1.6252927e-05,7.717362e-05,-2.180034e-06,-1.617949e-05,1.7822806e-06,-1.6298145e-05,4
1.2761205e-05,-4.7162403e-06,2.652018e-05,-1.5166387e-05,6.0134494e-06,1.1946268e-05,1.4910754e-05,7.784821e-05,3.5270184e-06,-1.5172394e-05,2.1180117e-06,-8.744929e-06,4
1.4272352e-05,-3.8773587e-06,1.779202e-05,-7.1089626e-06,5.8792702e-06,9.596868e-06,1.23936325e-05,7.499797e-05,6.380635e-06,-1.4500998e-05,3.1251398e-06,-1.6768675e-08,4
1.5615651e-05,-3.3741746e-06,5.8747232e-06,2.4591031e-06,4.8986694e-06,5.9046733e-06,1.1219304e-05,7.4833326e-05,5.5415703e-06,-1.6011641e-05,4.635816e-06,7.2007483e-06,4
1.5951853e-05,-3.0388398e-06,-1.3763638e-05,9.341581e-06,3.6630563e-06,3.890972e-06,1.004498e-05,7.836137e-05,3.863261e-06,-1.617949e-05,5.642945e-06,7.704295e-06,4
1.39381655e-05,-3.0392027e-06,-4.0451665e-05,1.2027827e-05,2.3539978e-06,3.2200653e-06,6.520764e-06,6.225106e-05,3.527747e-06,-1.3158203e-05,5.8108267e-06,1.9974214e-06,4
1.0917382e-05,-3.8788107e-06,-5.6061646e-05,1.2364182e-05,1.3733296e-06,2.5491581e-06,4.171495e-06,2.1970465e-05,1.8494403e-06,-9.801218e-06,5.1394622e-06,-3.373754e-06,4
7.393051e-06,-6.0612124e-06,-5.270466e-05,1.3539783e-05,4.7342246e-07,1.8782499e-06,6.1863025e-06,-3.0358435e-06,-3.3241255e-07,-7.1156305e-06,4.4680983e-06,-4.213e-06,4
3.5330195e-06,-8.411463e-06,-4.0619514e-05,1.320474e-05,-1.0034215e-06,2.0024783e-07,9.879604e-06,-1.17607715e-05,-2.178565e-06,-5.772837e-06,3.4610357e-06,-4.04515e-06,4
2.5264262e-06,-5.726236e-06,-2.1652551e-05,9.68056e-06,-1.4806077e-06,-1.3496009e-07,1.0887316e-05,-4.06276e-05,-3.5211697e-06,-4.9335913e-06,2.7896701e-06,-5.052246e-06,4
4.8768175e-06,1.9944705e-06,1.2588693e-05,6.995626e-06,-1.037715e-06,-1.3094159e-06,8.705896e-06,-9.198622e-05,-2.513882e-06,-1.4087568e-06,2.6218538e-06,-5.7236425e-06,4
4.7094695e-06,6.693889e-06,4.6997786e-05,8.6747705e-06,-3.3245547e-07,-1.8124725e-06,7.867269e-06,-0.00013663087,-1.6379974e-07,4.1302683e-06,2.1183391e-06,-5.3879444e-06,4
-2.5075472e-06,6.693531e-06,6.428626e-05,9.346818e-06,5.3308617e-07,-4.6918709e-07,5.014449e-06,-0.00015660167,2.018435e-06,1.1012086e-05,2.7897674e-06,-3.541603e-06,4
-1.089951e-05,5.6860786e-06,6.7978945e-05,5.3190874e-06,-3.111124e-08,3.4850512e-08,8.1883655e-07,-0.00014451327,2.1864807e-06,1.8733152e-05,1.7827057e-06,-3.5246669e-07,4
-1.727728e-05,3.3358301e-06,5.6565194e-05,-2.065629e-06,-2.6827702e-06,-8.0390475e-07,-3.0410818e-06,-9.331598e-05,-4.989096e-07,2.1418738e-05,1.04245785e-07,1.9974214e-06,4
-2.231226e-05,-1.8936066e-07,3.256275e-05,-8.77895e-06,-5.3421318e-06,-2.1462079e-06,-5.2225023e-06,-2.415883e-05,-4.862791e-06,1.8733152e-05,1.1113718e-06,8.224773e-07,4
-1.8283381e-05,-1.7003599e-06,6.0425727e-06,-1.851356e-05,-5.234922e-06,-3.4885109e-06,-2.871994e-06,3.15704e-05,-6.8767813e-06,1.7390357e-05,2.6220468e-06,4.867793e-07,4
-5.526338e-06,9.848725e-07,5.706874e-06,-2.8919567e-05,-2.6831915e-06,-1.8095278e-06,4.1782914e-06,7.722867e-05,-6.0373345e-06,2.0915191e-05,2.4542298e-06,2.3331204e-06,4
7.0628525e-06,6.6913913e-06,1.963836e-05,-3.059741e-05,-1.6499363e-06,1.0444014e-06,1.0892874e-05,0.00012221556,-3.3515419e-06,2.343293e-05,1.1114677e-06,2.6688194e-06,4
1.360947e-05,1.1894363e-05,1.5106432e-06,-2.0525811e-05,-3.5569126e-06,1.5484397e-06,1.7271763e-05,0.00013967516,-1.504995e-06,2.0747342e-05,7.758014e-07,2.3331204e-06,4
1.1260078e-05,1.0551215e-05,-4.4144348e-05,-3.0688486e-06,-5.3691974e-06,8.775352e-07,2.0797215e-05,0.0001114798,-3.1832817e-06,1.6718961e-05,1.7829291e-06,2.6688194e-06,4
2.3645655e-06,1.9905517e-06,-7.066453e-05,1.2541774e-05,-5.8466517e-06,1.2137248e-06,1.7440847e-05,5.2064475e-05,-7.547155e-06,1.5544016e-05,1.4472607e-06,4.3473124e-06,4
-8.712988e-06,-6.0665648e-06,-6.0257877e-05,1.9927782e-05,-5.5715805e-06,2.071205e-07,8.209757e-06,-1.4400511e-05,-1.1407477e-05,1.6383263e-05,-9.0259675e-07,6.1936535e-06,4
-1.76085e-05,-6.234766e-06,-3.1723506e-05,1.9760575e-05,-6.7124024e-06,-1.4708806e-06,-4.210471e-06,-6.9283895e-05,-1.056802e-05,1.5711865e-05,-2.5810573e-06,8.039995e-06,4
-1.7943707e-05,-6.4029664e-06,-1.2924392e-05,1.7747023e-05,-8.197019e-06,-3.4845787e-06,-1.8309192e-05,-0.00011090718,-1.1071357e-05,1.0340689e-05,-3.252422e-06,1.0725582e-05,4
-1.3914829e-05,-6.0676193e-06,-8.056763e-06,1.5733473e-05,-1.0103981e-05,-6.3375246e-06,-2.8379529e-05,-0.00010032935,-1.3085334e-05,-2.0801538e-06,-3.4202396e-06,1.374687e-05,4
-1.0725198e-05,4.6743817e-06,2.0141908e-06,1.338422e-05,-1.1244741e-05,-8.183372e-06,-3.0057405e-05,-2.3115368e-05,-1.1742324e-05,-1.5172394e-05,-2.2452653e-06,1.5425361e-05,4
-1.0053308e-05,1.9109068e-05,1.5777829e-05,9.188627e-06,-1.03795355e-05,-7.0079363e-06,-2.6699803e-05,1.8011035e-05,-6.8744794e-06,-1.836153e-05,-6.319319e-08,1.3579021e-05,4
-8.542171e-06,2.2130003e-05,1.3931487e-05,2.6431433e-06,-7.4188624e-06,-4.1540056e-06,-2.4181449e-05,-4.3586293e-05,-3.5172775e-06,-1.3326052e-05,1.1117819e-06,9.2149385e-06,4
-5.52039e-06,1.5079987e-05,-5.035477e-07,-4.0701902e-06,-5.0347226e-06,-3.482117e-06,-2.0656e-05,-0.00012263993,-3.181359e-06,-7.1156305e-06,7.7611486e-07,6.0258044e-06,4
-4.680652e-06,1.0547709e-05,-5.706874e-06,-9.608583e-06,-5.6802296e-06,-5.160118e-06,-1.2598619e-05,-0.000117936805,-4.523932e-06,-3.4229477e-06,7.761458e-07,5.018708e-06,4
-5.8551027e-06,7.861775e-06,-8.224612e-06,-1.3636331e-05,-7.0836286e-06,-4.1525277e-06,4.9423454e-07,-5.6500612e-05,-4.1880107e-06,-4.0943446e-06,-6.306935e-08,5.1865572e-06,4
-4.3439677e-06,3.1616494e-06,-1.560998e-05,-1.4474945e-05,-7.7207105e-06,-2.8092409e-06,1.4258488e-05,-1.6381278e-05,-2.341446e-06,-6.444234e-06,-2.3088859e-07,5.5222554e-06,4
-1.4900402e-06,-2.7832595e-08,-1.5106431e-05,-1.1453027e-05,-8.701982e-06,-3.815844e-06,2.231587e-05,-4.46061e-06,-3.1804666e-06,-6.7799324e-06,4.405401e-07,5.3544063e-06,4
1.19604e-06,-3.217313e-06,-7.5532157e-06,-6.081221e-06,-8.7625795e-06,-6.50094e-06,2.2820032e-05,7.469808e-08,-5.530129e-06,-2.751551e-06,1.1119668e-06,6.0258044e-06,4
1.5322287e-06,-1.3120763e-05,-3.3569847e-06,-3.3950023e-06,-7.04971e-06,-7.5075404e-06,1.6274525e-05,-1.9895977e-05,-7.0405436e-06,2.2839265e-06,1.6155462e-06,6.5293525e-06,4
-3.502759e-06,-2.369561e-05,-1.8463417e-06,-3.2265248e-06,-5.513311e-06,-7.1713494e-06,3.854296e-06,-8.048616e-05,-6.536767e-06,5.97661e-06,1.6155767e-06,6.3615034e-06,4
-1.39089225e-05,-2.5206597e-05,1.1749447e-06,-1.8831021e-06,-6.0774473e-06,-6.6673088e-06,-1.1755067e-05,-0.00013939786,-5.697289e-06,1.017284e-05,1.6156071e-06,7.704295e-06,4
-2.4986484e-05,-2.084286e-05,3.8605326e-06,9.709607e-07,-7.050101e-06,-5.1561724e-06,-2.7700129e-05,-0.00015181529,-3.850715e-06,1.4872619e-05,1.2799374e-06,7.0328992e-06,4
-2.9350074e-05,-1.5136327e-05,4.867628e-06,3.9928723e-06,-6.8565614e-06,-4.6521295e-06,-3.777047e-05,-0.00012344537,-2.1719882e-06,1.8061755e-05,1.7835166e-06,1.8295723e-06,4
-2.9349585e-05,-1.1611835e-05,5.2033265e-06,4.8327443e-06,-5.0708018e-06,-5.3230337e-06,-4.1798237e-05,-7.778696e-05,-2.1717526e-06,1.9740248e-05,2.1192448e-06,-6.3950397e-06,4
-3.270608e-05,-1.077293e-05,5.2033265e-06,3.658423e-06,-4.7005965e-06,-6.161787e-06,-4.381181e-05,-5.915228e-05,-2.1715157e-06,1.8397453e-05,2.729338e-07,-1.075912e-05,4
-3.539118e-05,-1.0941119e-05,4.699779e-06,2.8198e-06,-4.1714284e-06,-5.657744e-06,-4.4482596e-05,-4.8742204e-05,-1.4998803e-06,1.3026278e-05,7.765108e-07,-1.1094819e-05,4
-3.0019519e-05,-9.262967e-06,4.867628e-06,1.981176e-06,-2.2178122e-06,-6.496497e-06,-3.9446506e-05,2.1590056e-05,-1.1639426e-06,8.997896e-06,1.4479367e-06,-1.075912e-05,4
-1.1219916e-05,-5.402774e-06,5.5390246e-06,9.747009e-07,-1.6905094e-07,-6.160305e-06,-3.0885578e-05,0.0001181068,-1.4993992e-06,7.3194037e-06,7.765705e-07,-1.3612557e-05,4
1.8322036e-05,4.71611e-07,5.5390246e-06,1.3110199e-06,1.7028447e-06,-1.1243316e-06,-2.1988957e-05,0.00016729007,-2.0027044e-06,6.3123084e-06,-2.3049571e-07,-1.3444708e-05,4
3.645024e-05,3.996107e-06,3.8605326e-06,1.3116389e-06,1.6422789e-06,1.8974479e-06,-1.4267276e-05,0.00016427223,-3.3452543e-06,3.7945695e-06,-1.0697121e-06,-8.57708e-06,4
3.342944e-05,4.6671653e-06,1.0070954e-06,1.480106e-06,-1.5798916e-09,2.0657913e-06,-1.0909679e-05,0.00013574131,-3.3450085e-06,-2.0801538e-06,-2.4124765e-06,-2.7023568e-06,4
2.0337682e-05,2.6526384e-06,-8.392462e-07,3.0577806e-07,-2.493832e-06,2.9055338e-06,-1.1580462e-05,7.666183e-05,-9.948724e-07,-1.1144013e-05,-3.587391e-06,6.546283e-07,4
1.0602912e-05,6.3811103e-07,-1.1749447e-06,-2.9303832e-08,-2.0508426e-06,3.5774246e-06,-1.0908452e-05,-2.2030063e-05,1.5231149e-06,-1.7857983e-05,-3.7552104e-06,3.6759143e-06,4
6.4071646e-06,1.8127193e-06,1.2849804e-21,4.748583e-07,8.3729356e-07,2.5708243e-06,-7.718703e-06,-0.00010158713,3.2018575e-06,-1.8025832e-05,-3.755181e-06,7.0328992e-06,4
3.8899097e-06,3.1551783e-06,1.8463417e-06,9.790205e-07,3.3804508e-06,3.8927828e-07,-6.543145e-06,-0.00010460495,3.873506e-06,-1.23189575e-05,-2.915906e-06,1.0389885e-05,4
2.3797502e-06,1.9798997e-06,2.5177385e-06,-3.6315933e-07,5.1662423e-06,-4.4947174e-07,-5.5354362e-06,-5.374315e-05,2.5309646e-06,-9.1298225e-06,-1.2373847e-06,1.6096757e-05,4
8.6959e-07,-7.0602215e-07,2.1820401e-06,-1.7053411e-06,4.6974565e-06,-4.4897666e-07,-2.3456876e-06,-2.88135e-06,-9.93615e-07,-8.458425e-06,-5.659595e-07,2.6839109e-05,4
-9.762687e-07,-3.0562453e-06,3.8605326e-06,-6.9763587e-07,3.715712e-06,-2.6305215e-06,-1.337981e-06,2.1628128e-05,-3.5110982e-06,-7.2834796e-06,-5.6593046e-07,4.1274143e-05,4
-1.8150337e-06,-6.077864e-06,5.2033265e-06,1.6528654e-06,4.3265677e-06,-4.6442174e-06,-1.5052175e-06,1.3574857e-05,-3.3429908e-06,-5.940686e-06,-1.4051466e-06,5.0002305e-05,4
-3.1573472e-06,-5.23895e-06,5.5390246e-06,1.3177756e-06,4.5292427e-06,-4.308024e-06,-4.9751014e-07,-9.24914e-06,-1.4963902e-06,-4.4300427e-06,-1.2372686e-06,4.698102e-05,4
-4.667509e-06,-1.2108985e-06,4.867628e-06,-2.441002e-08,3.8831286e-06,-1.9576394e-06,-1.612e-07,-2.0155836e-05,3.5021134e-07,-1.9123047e-06,-7.3369284e-07,3.1874588e-05,4
-3.4920836e-06,1.3065078e-06,5.706874e-06,-2.3802693e-08,1.6405556e-06,1.2319921e-06,8.4651003e-07,-9.242125e-06,-1.8315674e-06,1.6125294e-06,-1.2372111e-06,1.1732678e-05,4
-1.1417145e-06,2.4811236e-06,7.217517e-06,6.4819966e-07,3.3265212e-07,5.610898e-07,4.371956e-06,8.21771e-06,-3.5097974e-06,1.948228e-06,-1.0693334e-06,-2.870206e-06,4
-1.3413887e-07,4.3271352e-06,5.035477e-06,1.4525801e-07,-6.492287e-07,-1.9561526e-06,9.575892e-06,1.4431655e-05,-2.8381357e-06,2.6973555e-07,1.2805841e-06,-6.059341e-06,4
-1.6443026e-06,3.991108e-06,2.3498894e-06,-6.933846e-07,-2.052548e-06,-1.2842606e-06,1.2765639e-05,1.00710995e-05,-2.5021707e-06,-1.0730583e-06,2.6234065e-06,-2.0309596e-06,4
-4.49726e-06,2.6479859e-06,3.1891354e-06,-6.927812e-07,-2.353293e-06,1.7375222e-06,1.1423459e-05,7.5568933e-06,-1.1591093e-06,-1.2409076e-06,6.0924503e-07,2.8366694e-06,4
-5.1681795e-06,1.3048631e-06,5.035477e-06,-2.0780782e-08,-6.496525e-07,3.5843602e-06,8.067085e-06,9.406773e-06,-8.2314244e-07,-2.4158524e-06,-2.5798627e-06,5.6901044e-06,4
-5.839098e-06,-1.381051e-06,4.867628e-06,-2.0179352e-08,4.6477675e-07,3.5848564e-06,6.221353e-06,1.0920958e-05,-9.907211e-07,-4.0943446e-06,-2.5798345e-06,1.3260253e-06,4
-3.1530344e-06,-4.5705124e-06,1.8463417e-06,-2.3694688e-06,2.0104364e-06,3.9210504e-06,6.2219638e-06,1.0756655e-05,-8.226004e-07,-5.772837e-06,-5.6561623e-07,-7.5699845e-06,4
7.254096e-06,-2.0531013e-06,1.1749447e-06,-2.7045685e-06,3.2104601e-06,6.103588e-06,9.24386e-06,1.260655e-05,-1.1580252e-06,-4.5978923e-06,1.1129049e-06,-1.6801692e-05,4
1.9339717e-05,3.4855984e-06,5.706874e-06,3.1731702e-07,2.982104e-06,7.279028e-06,1.4112098e-05,1.7309887e-05,-1.1577506e-06,-2.0801538e-06,1.4486309e-06,-2.8215441e-05,4
2.4375671e-05,6.338712e-06,8.7281605e-06,4.6819955e-06,4.1921294e-06,7.2795247e-06,1.9651734e-05,1.8656245e-05,-1.8288714e-06,-4.0166148e-07,9.451118e-07,-4.2986172e-05,4
1.9676369e-05,4.659895e-06,7.721065e-06,6.6967823e-06,4.720688e-06,8.119268e-06,2.2673632e-05,1.3960035e-05,-2.8356899e-06,-9.0520905e-07,-9.012023e-07,-5.1210787e-05,4
1.0780834e-05,2.9810797e-06,4.1962307e-06,4.6831874e-06,2.3103016e-06,7.951916e-06,2.0324353e-05,7.417491e-06,-4.178204e-06,2.6973555e-07,-5.654765e-07,-4.432897e-05,4
5.4101324e-06,3.8200037e-06,2.1820401e-06,2.669591e-06,-1.3472376e-06,5.7703714e-06,1.5960883e-05,2.889141e-06,-3.8422254e-06,1.276831e-06,2.1201402e-06,-2.7544043e-05,4
5.2427577e-06,3.3161327e-06,3.0212864e-06,3.6772794e-06,-1.6579937e-06,4.9316222e-06,1.2940206e-05,3.5641224e-06,-3.3383956e-06,1.4446802e-06,3.1272627e-06,-1.3612557e-05,4
8.6002165e-06,1.3016203e-06,4.3640803e-06,5.692063e-06,-2.0784013e-07,3.589325e-06,1.210157e-05,7.763945e-06,-5.0166045e-06,1.948228e-06,1.0600534e-07,-8.744929e-06,4
9.439936e-06,2.9420542e-07,4.5319293e-06,5.0212575e-06,3.309161e-07,4.5969177e-06,1.2102179e-05,1.0956677e-05,-5.5198675e-06,3.6267202e-06,-1.5724602e-06,-7.402135e-06,4
1.0615353e-05,4.617342e-07,3.0212864e-06,2.33626e-06,-9.870021e-07,6.947304e-06,1.1095691e-05,9.6174845e-06,-3.8410894e-06,5.1373636e-06,-9.010368e-07,-6.7307383e-06,4
1.22943175e-05,1.3006596e-06,1.3427939e-06,1.3297546e-06,-1.7188805e-06,8.290595e-06,1.0928451e-05,5.257009e-06,-9.873648e-07,6.6480065e-06,1.06087484e-07,-8.073533e-06,4
1.2966187e-05,1.3003406e-06,1.8463417e-06,3.0088352e-06,-1.7296684e-07,8.458941e-06,1.1096909e-05,3.9178285e-06,-3.1567853e-07,6.6480065e-06,1.2810577e-06,-9.248477e-06,4
1.1791713e-05,1.1321733e-06,2.5177385e-06,4.016518e-06,2.705279e-06,6.9487955e-06,1.2440313e-05,6.607033e-06,-1.1546342e-06,4.633816e-06,-6.170816e-08,-7.905683e-06,4
9.274446e-06,-7.144854e-07,2.1820401e-06,5.0242e-06,5.4982447e-06,5.2707996e-06,1.3951564e-05,8.960545e-06,-9.864933e-07,3.6267202e-06,-2.243722e-06,-6.059341e-06,4
8.267821e-06,-1.8897475e-06,3.3569847e-07,6.703278e-06,6.0371267e-06,5.271297e-06,1.4120022e-05,9.2998725e-06,-1.6575959e-06,3.6267202e-06,-6.165411e-08,-5.7236425e-06,4
9.107537e-06,-4.3722963e-08,-5.035477e-07,8.046657e-06,5.5583187e-06,6.9502876e-06,1.4288479e-05,7.960711e-06,-3.5036442e-06,3.1231725e-06,3.1275079e-06,-6.059341e-06,4
8.9401565e-06,2.3058521e-06,8.392462e-07,6.536597e-06,5.6657054e-06,8.797127e-06,1.5296186e-05,7.460802e-06,-3.503348e-06,2.9553235e-06,4.470329e-06,-6.8985873e-06,4
6.255038e-06,1.969838e-06,3.1891354e-06,5.194386e-06,5.029706e-06,9.972569e-06,1.3953997e-05,6.7930473e-06,-3.50305e-06,3.1231725e-06,4.806054e-06,-7.737834e-06,4
3.5699186e-06,6.2672945e-07,5.706874e-06,7.712705e-06,6.3971715e-06,8.6302725e-06,1.1940416e-05,8.643037e-06,-4.174147e-06,2.2839265e-06,5.141779e-06,-9.416326e-06,4
2.2275938e-06,-3.806805e-07,5.8747232e-06,9.727477e-06,6.6724165e-06,5.441634e-06,9.255435e-06,1.6703456e-05,-2.8310533e-06,1.0188633e-07,4.1347107e-06,-1.075912e-05,4
8.8526735e-07,-2.2273357e-06,3.8605326e-06,8.049565e-06,4.357988e-06,3.931489e-06,6.906152e-06,3.298849e-05,-6.487104e-07,-4.4300427e-06,2.791942e-06,-1.2269763e-05,4
-1.7998535e-06,-3.4025925e-06,1.5106432e-06,3.6860624e-06,2.3684015e-06,3.931987e-06,7.913857e-06,4.8602138e-05,-1.487653e-06,-7.1156305e-06,2.6241196e-06,-1.8144487e-05,4
-1.7993868e-06,-3.4029044e-06,8.392462e-07,-6.0430922e-09,2.643656e-06,3.261089e-06,1.060005e-05,5.1123545e-05,-2.494444e-06,-7.1156305e-06,2.1205988e-06,-2.4858457e-05,4
-1.1275246e-06,-2.8996678e-06,2.853437e-06,-1.5161096e-06,3.0148778e-06,2.59019e-06,1.07685055e-05,3.316735e-05,6.9499777e-07,-7.2834796e-06,2.1206251e-06,-3.157243e-05,4
-5.9946847e-06,-3.7392247e-06,1.8463417e-06,-2.3547811e-06,2.2001673e-06,4.0864717e-07,7.0764295e-06,-4.4271983e-06,2.541647e-06,-1.0808314e-05,7.778573e-07,-3.5097262e-05,4
-1.4554532e-05,-5.5858777e-06,-5.5390246e-06,-5.5433406e-06,1.2554318e-07,-2.6121397e-06,3.048655e-06,-2.4565421e-05,1.9206749e-07,-1.5340243e-05,-7.327606e-07,-3.4258013e-05,4
-1.7407503e-05,-7.4325285e-06,-9.735256e-06,-8.396205e-06,-2.35661e-06,-4.1222843e-06,2.3778643e-06,-1.7342339e-06,-1.3182652e-06,-1.7354434e-05,-1.5719796e-06,-3.157243e-05,4
-1.0525221e-05,-3.7401533e-06,-3.524834e-06,-6.2135937e-06,-2.1642936e-06,-1.939747e-06,2.5463196e-06,3.3182103e-05,3.6053916e-07,-1.8193681e-05,1.0653936e-07,-3.056533e-05,4
-3.1393915e-06,2.9735074e-06,4.5319293e-06,-3.382973e-07,2.9302183e-07,9.141893e-07,1.3719825e-06,4.325676e-05,2.0393447e-06,-1.7186585e-05,7.7796125e-07,-3.2915217e-05,4
-1.6282842e-06,7.001581e-06,2.5177385e-06,6.040543e-06,2.6785608e-06,1.0825368e-06,1.3725884e-06,1.825093e-05,3.7181521e-06,-1.6683038e-05,6.10138e-07,-3.6943602e-05,4
2.1851977e-07,8.176219e-06,-4.867628e-06,1.0740892e-05,3.374357e-06,-9.190978e-08,1.205345e-06,-2.1693477e-05,5.2291116e-06,-1.6850887e-05,1.1137107e-06,-3.0397481e-05,4
3.5759672e-06,9.015159e-06,-6.210422e-06,1.1412857e-05,5.495982e-06,2.4428678e-07,1.9885252e-07,-4.4685105e-05,4.893731e-06,-1.5843792e-05,2.7922283e-06,4.0116124e-06,4
5.5906203e-06,8.343456e-06,-2.3498894e-06,1.007063e-05,6.706639e-06,2.5946754e-06,-8.076362e-07,-3.5281828e-05,3.2155579e-06,-1.38296e-05,2.9601028e-06,5.10094e-05,4
6.933876e-06,7.1682057e-06,1.1749447e-06,8.392704e-06,5.891725e-06,4.441516e-06,-8.070311e-07,-7.415126e-06,2.5444813e-06,-1.2822506e-05,7.780893e-07,7.551539e-05,4
1.0291322e-05,5.4894094e-06,2.853437e-06,5.875531e-06,3.9849765e-06,5.616958e-06,2.0066784e-07,7.0236406e-06,3.6276356e-07,-1.3661751e-05,-2.2431723e-06,6.9137124e-05,4
1.532726e-05,5.3212566e-06,3.0212864e-06,4.029753e-06,3.3493566e-06,4.4425137e-06,8.7267256e-07,-1.8686317e-06,-2.6582002e-06,-1.1144013e-05,-2.746694e-06,4.3624033e-05,4
1.6838363e-05,6.8315967e-06,3.3569847e-07,1.5125786e-06,3.0379201e-06,3.7716145e-06,1.5446731e-06,-1.9824756e-05,-2.9935734e-06,-7.1156305e-06,-2.0752727e-06,1.00541865e-05,4
1.1635496e-05,6.327747e-06,-1.6784924e-06,-1.6535115e-07,1.1311829e-06,4.7792096e-06,2.2166735e-06,-3.509529e-05,-1.8183019e-06,-2.0801538e-06,-2.0752477e-06,-1.8144487e-05,4
5.257684e-06,4.648952e-06,-2.6855878e-06,-1.0040369e-06,1.5992764e-07,3.7726124e-06,1.3780326e-06,-3.7273578e-05,-2.3215223e-06,-2.3381217e-07,-2.9144676e-06,-3.1236726e-05,4
4.2510474e-06,4.984349e-06,-3.524834e-06,-3.6890638e-06,-6.55125e-07,2.0946184e-06,-1.8104995e-06,-4.4655186e-05,-5.846027e-06,-3.4229477e-06,-3.2501407e-06,-4.164338e-05,4
6.6013945e-06,5.3197473e-06,-5.5390246e-06,-8.052585e-06,-3.0653994e-06,7.5232555e-07,-4.4954845e-06,-5.4722375e-05,-9.034831e-06,-4.0943446e-06,-2.9144178e-06,-6.0778195e-05,4
4.92336e-06,4.6480504e-06,-8.89601e-06,-1.2248257e-05,-4.875839e-06,-8.6422304e-08,-3.823484e-06,-2.2659402e-05,-8.195253e-06,-3.926495e-06,-2.914393e-06,-8.12558e-05,4
-1.118757e-06,1.962164e-06,-1.1917296e-05,-1.6108233e-05,-5.3552626e-06,-2.1001142e-06,-1.4729908e-06,5.8079855e-05,-1.1452519e-06,-3.2550986e-06,-2.0751231e-06,-9.099105e-05,4
-3.1324914e-06,1.1226185e-06,-1.3595788e-05,-1.7450473e-05,-4.744239e-06,-1.7639169e-06,1.8845974e-06,0.0001285803,9.597435e-06,-1.7444554e-06,-5.6445555e-07,-8.813762e-05,4
3.2462367e-06,3.4722095e-06,-1.326009e-05,-1.644282e-05,-4.2047277e-06,7.5432246e-07,4.9064874e-06,0.00014369054,1.6983136e-05,7.7328326e-07,-1.571525e-06,-7.739526e-05,4
1.2142702e-05,4.311159e-06,-1.4267185e-05,-1.4428077e-05,-3.5092742e-06,1.5940668e-06,5.9141844e-06,0.00012388811,1.597638e-05,5.97661e-06,-3.7535406e-06,-6.0442493e-05,4
1.8017881e-05,3.3037663e-06,-1.326009e-05,-1.1574086e-05,-2.7303922e-06,1.4267172e-06,2.8935008e-06,0.00010156795,1.0605543e-05,1.0676388e-05,-5.264159e-06,-4.231478e-05,4
1.902543e-05,6.1788336e-07,-8.5603115e-06,-8.0487e-06,-2.1908181e-06,1.9307636e-06,-5.16266e-06,6.481277e-05,6.2418035e-06,1.47047695e-05,-5.599835e-06,-2.3012115e-05,4
1.4997503e-05,-8.930551e-07,-5.3711756e-06,-6.3696566e-06,-2.502527e-06,1.2598672e-06,-1.3890218e-05,1.5468899e-05,3.8922562e-06,1.705466e-05,-5.7676593e-06,4.5151614e-06,4
4.423455e-06,-2.2361448e-06,-3.6926833e-06,-4.690614e-06,-4.241374e-06,-1.7609203e-06,-1.8925093e-05,-3.9413993e-05,2.3819562e-06,1.7390357e-05,-5.5997866e-06,4.395973e-05,4
-1.0850373e-05,-5.089876e-06,-3.3569847e-06,-3.51512e-06,-6.0516263e-06,-5.788802e-06,-2.0602984e-05,-0.00012669178,-4.7113573e-07,1.3697675e-05,-4.7605154e-06,8.357216e-05,4
-2.394216e-05,-7.6079077e-06,-4.867628e-06,-4.689517e-06,-6.0277052e-06,-8.809587e-06,-1.9763138e-05,-0.00022320126,-3.6599256e-06,9.837142e-06,-4.0890955e-06,0.00010858169,4
-2.7970089e-05,-1.0125939e-05,-5.3711756e-06,-5.3603662e-06,-6.423748e-06,-9.816185e-06,-1.7244796e-05,-0.00024233226,-5.841618e-06,7.822951e-06,-4.5926186e-06,0.00012083469,4
-2.4276955e-05,-1.0629778e-05,-6.5461204e-06,-4.017026e-06,-9.073185e-06,-1.0487081e-05,-1.4558608e-05,-0.00016813907,-5.3377207e-06,9.669293e-06,-4.9282926e-06,0.00012989854,4
-1.4541248e-05,-8.112332e-06,-7.5532157e-06,-2.3379905e-06,-8.713632e-06,-1.0654431e-05,-1.3886609e-05,-7.883944e-05,-1.1411393e-06,1.0676388e-05,-3.4176248e-06,0.00013745177,4
-5.4769384e-06,-4.755638e-06,-7.3853666e-06,-6.5895483e-07,-3.7384905e-06,-9.982535e-06,-1.5228803e-05,-4.2915864e-05,3.89469e-06,8.662198e-06,-1.7391092e-06,0.00014332648,4
-4.8050924e-06,-6.098722e-06,-7.5532157e-06,6.8438186e-07,-1.7744152e-07,-9.310639e-06,-1.791379e-05,-7.0439295e-05,5.2378373e-06,6.6480065e-06,6.1080345e-07,0.00015776152,4
-1.0847215e-05,-9.6238455e-06,-9.231708e-06,2.3634166e-06,-3.007094e-06,-9.14229e-06,-2.009523e-05,-0.000121629455,1.5455086e-06,6.6480065e-06,2.12147e-06,0.00016430762,4
-1.6050091e-05,-1.0127683e-05,-9.567407e-06,3.7067512e-06,-6.7601004e-06,-1.0484582e-05,-1.8248289e-05,-0.00014025687,-4.683258e-07,7.9908e-06,2.6250405e-06,0.000141648,4
-1.6217491e-05,-7.1066843e-06,-8.3924615e-06,2.3644968e-06,-7.059523e-06,-1.2330423e-05,-1.2037266e-05,-9.661221e-05,-1.6429123e-06,7.655102e-06,2.1215167e-06,0.00010052493,4
-1.2188662e-05,-1.5679478e-06,-6.210422e-06,1.3579403e-06,-4.685917e-06,-1.2497771e-05,-3.8120547e-06,-3.601477e-05,-3.8245944e-06,4.633816e-06,2.960785e-06,6.12482e-05,4
-4.8028487e-06,1.6209002e-06,-3.524834e-06,2.3655728e-06,-2.3963419e-06,-1.0147384e-05,2.2311178e-06,-1.3015554e-05,-4.66348e-06,3.6267202e-06,3.4643572e-06,3.2545984e-05,4
1.9115685e-06,2.459862e-06,-1.3427939e-06,2.7018082e-06,-2.527851e-06,-7.629145e-06,5.420853e-06,-2.7446713e-05,-3.656023e-06,3.6267202e-06,4.8071743e-06,1.4753963e-05,4
2.5834122e-06,-3.938619e-07,-1.1749447e-06,2.7023436e-06,-2.6720534e-06,-5.782303e-06,3.2394112e-06,-4.422776e-05,-2.1450157e-06,1.948228e-06,4.8071975e-06,5.6901044e-06,4
-1.9480706e-06,-2.07264e-06,-1.8463417e-06,3.542124e-06,-3.2359028e-06,-1.9212707e-06,-3.306111e-06,-4.0363342e-05,-1.808953e-06,7.7328326e-07,3.9679744e-06,-3.5246669e-07,4
-8.158048e-06,-4.0871146e-06,-3.524834e-06,4.717602e-06,-4.3744453e-06,5.969675e-07,-1.0187329e-05,-1.7028406e-05,-1.976436e-06,2.1160772e-06,2.457353e-06,-6.2271906e-06,4
-1.084319e-05,-7.4443833e-06,-6.881819e-06,5.3895315e-06,-4.8544143e-06,1.6045637e-06,-1.5893605e-05,6.8100812e-06,-3.1510133e-06,1.1012086e-05,9.467329e-07,-1.3109009e-05,4
-1.0674896e-05,-1.2983691e-05,-1.0742351e-05,4.886515e-06,-2.9005162e-06,-4.09126e-07,-1.9249992e-05,1.0170967e-05,-3.9898905e-06,2.1418738e-05,4.4320853e-07,-1.8480185e-05,4
-7.821014e-06,-1.5501711e-05,-1.326009e-05,3.879949e-06,-6.820113e-07,-1.4157226e-06,-1.9752943e-05,-1.4067266e-06,-3.6538222e-06,2.578282e-05,3.4645172e-06,-2.1501472e-05,4
-5.470681e-06,-1.3487803e-05,-1.2588693e-05,2.2019863e-06,-8.2635114e-07,-4.0812532e-07,-1.9752346e-05,-9.963128e-06,-4.6605455e-06,2.5111423e-05,5.1430316e-06,-2.0997923e-05,4
-5.302389e-06,-1.0802496e-05,-8.89601e-06,2.0474268e-08,-2.0615778e-06,-2.421816e-06,-2.0255295e-05,-1.2309102e-05,-3.4852283e-06,2.3097231e-05,3.1288632e-06,-2.0997923e-05,4
-4.4626995e-06,-9.292134e-06,-6.210422e-06,-1.3217928e-06,-2.3607488e-06,-5.1069046e-06,-2.0590396e-05,-1.0290992e-05,-1.1349637e-06,1.705466e-05,7.789965e-07,-2.5529853e-05,4
-1.7766703e-06,-6.271127e-06,-5.035477e-06,-1.3212667e-06,-6.588153e-07,-2.7565131e-06,-1.5554322e-05,1.965928e-06,5.439047e-07,8.997896e-06,1.0762277e-07,-3.3922315e-05,4
1.5807564e-06,-2.410874e-06,-3.1891354e-06,-1.6564397e-06,6.2370907e-07,7.688214e-07,-6.489866e-06,2.0265425e-05,-1.1342103e-06,3.9624188e-06,-5.6375404e-07,-4.0636285e-05,4
2.3840246e-07,-6.126355e-08,8.392462e-07,-9.845199e-07,-1.7894861e-07,1.1050199e-06,5.68499e-08,3.2522355e-05,-3.4837215e-06,-1.0730583e-06,-3.9588193e-07,-4.197908e-05,4
-3.45384e-06,-6.15414e-08,3.0212864e-06,-3.1259907e-07,-1.6662199e-06,9.842444e-08,3.5822802e-06,3.7058224e-05,-5.497531e-06,-9.465521e-06,-8.994079e-07,-3.9629187e-05,4
-3.7890977e-06,-6.18186e-08,1.8463417e-06,1.9146968e-07,-3.0692715e-06,1.27387e-06,7.6112574e-06,3.924421e-05,-5.1614506e-06,-1.7522285e-05,-2.074331e-06,-3.5768655e-05,4
-7.673712e-07,6.0930284e-07,8.392462e-07,2.0383325e-06,-2.0255259e-06,3.9599577e-06,1.1975936e-05,4.2772994e-05,-2.4754806e-06,-2.3229159e-05,-2.0743091e-06,-3.1740277e-05,4
1.9186548e-06,1.616121e-06,2.6855878e-06,4.053042e-06,1.0190639e-06,4.631856e-06,1.4326419e-05,4.7141028e-05,-6.287543e-07,-2.4236253e-05,-3.9579427e-07,-2.8886838e-05,4
2.9261885e-06,2.6229427e-06,4.5319293e-06,3.3821636e-06,2.3016116e-06,2.9538649e-06,1.4998414e-05,5.2851858e-05,-7.962185e-07,-2.255776e-05,-6.0073575e-08,-2.8886838e-05,4
3.9337224e-06,3.7976133e-06,2.6855878e-06,2.0398882e-06,2.674023e-06,2.4508174e-06,1.5502557e-05,6.007334e-05,-1.8029262e-06,-2.5914745e-05,-1.906393e-06,-3.0397481e-05,4
3.93416e-06,4.3008863e-06,1.1749447e-06,2.5439517e-06,3.8722014e-06,3.290564e-06,1.7013794e-05,6.4944936e-05,-1.4668386e-06,-3.2460863e-05,-3.5848643e-06,-3.090103e-05,4
3.598898e-06,5.139858e-06,4.1962307e-06,3.3837132e-06,2.6370212e-06,5.6409526e-06,1.7685785e-05,6.6963104e-05,8.8343984e-07,-3.4475055e-05,-3.249144e-06,-3.0229632e-05,4
4.4385815e-06,5.9788335e-06,8.224612e-06,2.7128315e-06,3.239079e-07,7.823495e-06,1.8022078e-05,6.763847e-05,2.2266256e-06,-3.0278827e-05,-2.7455756e-06,-2.7040496e-05,4
4.9425653e-06,5.9785616e-06,8.5603115e-06,2.7756771e-08,-1.5647588e-07,5.9776535e-06,1.819052e-05,7.032805e-05,1.2199232e-06,-2.4236253e-05,-2.9134033e-06,-2.183717e-05,4
6.6214934e-06,4.9711934e-06,6.5461204e-06,-9.78827e-07,2.6367375e-06,1.110527e-06,1.533768e-05,7.83888e-05,2.132221e-07,-2.255776e-05,-1.9062861e-06,-1.965513e-05,4
7.964722e-06,4.4673757e-06,4.1962307e-06,1.3715742e-06,4.352067e-06,-2.4138062e-06,1.1309889e-05,9.2492126e-05,1.5564111e-06,-2.4571951e-05,-1.7384159e-06,-1.8480185e-05,4
7.4616087e-06,4.4671056e-06,5.2033265e-06,3.3862743e-06,4.7108615e-06,-2.2454562e-06,8.624897e-06,9.350323e-05,3.0674516e-06,-2.3900555e-05,-2.577642e-06,-1.5458898e-05,4
5.4478514e-06,3.7954405e-06,6.7139695e-06,2.7153874e-06,3.6435533e-06,-5.664625e-07,4.7649587e-06,6.295867e-05,2.0607542e-06,-1.852938e-05,-2.409772e-06,-1.44518035e-05,4
-1.0978364e-06,3.627321e-06,5.035477e-06,1.3731013e-06,1.498412e-06,-5.659617e-07,2.247812e-06,1.4957794e-05,2.1481297e-07,-1.0640465e-05,-1.2348061e-06,-1.3948255e-05,4
-8.48277e-06,2.6199589e-06,3.6926833e-06,-3.0488374e-07,-1.3319957e-06,-2.2439538e-06,1.4091598e-06,-1.4747509e-05,-1.1275802e-06,-5.6049876e-06,-1.9061813e-06,-7.737834e-06,4
-9.153733e-06,2.6196917e-06,4.1962307e-06,-3.043779e-07,-3.7420882e-06,-3.0827e-06,1.4097524e-06,-3.329743e-06,-1.7985745e-06,-3.4229477e-06,-4.5917495e-06,2.1652713e-06,4
-5.796316e-06,3.626519e-06,4.699779e-06,1.3746189e-06,-4.7122207e-06,-1.4037071e-06,1.9138918e-06,1.1277164e-05,-3.4766636e-06,-1.5766061e-06,-4.42388e-06,9.8863375e-06,4
-2.4389e-06,5.640446e-06,3.524834e-06,2.5500667e-06,-3.3464682e-06,-7.318082e-07,3.2572768e-06,-2.3631452e-05,-3.4762581e-06,1.276831e-06,-1.5704214e-06,1.00541865e-05,4
-1.0956772e-06,7.654371e-06,3.1891354e-06,2.0470222e-06,-3.8537323e-07,-1.4027053e-06,1.9150757e-06,-9.462765e-05,-7.902633e-07,2.2839265e-06,1.0809208e-07,3.3402164e-06,4
-4.2384897e-07,1.0003995e-05,6.210422e-06,2.3832217e-06,9.944441e-07,-5.629564e-07,-7.6992063e-07,-0.00014044646,1.5600345e-06,9.411325e-07,-2.2758753e-07,-3.7094521e-06,4
1.4229228e-06,1.1010828e-05,7.217517e-06,4.0622144e-06,8.494846e-07,-5.890847e-08,-5.8048054e-06,-0.00011946126,1.5604442e-06,6.05434e-07,4.4383077e-07,-9.584175e-06,4
4.444638e-06,8.157126e-06,3.8605326e-06,5.9090557e-06,1.4607025e-06,7.8083946e-07,-9.32905e-06,-5.1813964e-05,1.3930061e-06,2.1160772e-06,1.7866449e-06,-1.2101914e-05,4
4.4450667e-06,5.1355764e-06,8.392462e-07,5.2381583e-06,6.585426e-07,1.2848874e-06,-7.985665e-06,8.615811e-06,2.5683628e-06,3.9624188e-06,1.6188161e-06,-1.3109009e-05,4
1.5920577e-06,3.2889734e-06,1.5106432e-06,4.063709e-06,-1.5006771e-06,2.4603335e-06,-4.795939e-06,1.1137605e-05,3.7437214e-06,6.6480065e-06,-1.0667528e-06,-1.5458898e-05,4
-8.600761e-08,2.449467e-06,3.3569847e-06,5.0713015e-06,-7.215973e-07,2.4608344e-06,-4.4596504e-06,-2.9142151e-05,4.5833826e-06,8.662198e-06,-2.5773759e-06,-1.6801692e-05,4
7.536665e-07,9.3856244e-07,3.3569847e-06,6.4145906e-06,9.940416e-07,1.2863903e-06,-6.137552e-06,-4.541946e-05,6.4301407e-06,6.3123084e-06,-1.234562e-06,-1.8480185e-05,4
4.614625e-06,-3.0900794e-06,1.1749447e-06,7.4221803e-06,6.810949e-07,-5.590272e-08,-3.9549222e-06,-1.2181242e-05,6.598408e-06,2.4517756e-06,2.7610182e-07,-2.0326526e-05,4
8.307735e-06,-8.293665e-06,3.4373225e-20,6.415578e-06,-5.5400443e-07,1.1244726e-07,2.418973e-07,3.1463635e-05,3.91324e-06,6.05434e-07,9.4751755e-07,-1.8144487e-05,4
8.811708e-06,-1.4168647e-05,-6.7139695e-07,4.401879e-06,-2.02744e-06,9.5219525e-07,4.2708716e-06,4.556705e-05,1.2280728e-06,-2.0801538e-06,1.2832352e-06,-1.4787502e-05,4
5.6229965e-06,-1.954008e-05,1.6784924e-07,3.7309726e-06,-2.6761536e-06,1.6240922e-06,6.2856498e-06,3.382169e-05,-1.1429949e-07,-4.4300427e-06,1.0831171e-07,-1.294116e-05,4
1.259342e-06,-2.105098e-05,1.6784924e-06,3.7314624e-06,-2.9041448e-06,9.5319723e-07,3.9363476e-06,1.4690965e-05,-2.8172502e-07,-1.4087568e-06,-1.2344639e-06,-1.1430517e-05,4
-2.097219e-06,-1.7526403e-05,8.392462e-07,3.2284029e-06,-2.8668746e-06,-5.339777e-08,-1.2663888e-06,-9.149192e-07,1.2293433e-06,1.7803786e-06,-1.5701424e-06,-1.0255572e-05,4
-3.7752886e-06,-1.38339765e-05,-1.0070954e-06,3.2288906e-06,-2.6764126e-06,1.1495223e-07,-1.9371964e-06,-1.2492418e-05,3.411809e-06,2.2839265e-06,-1.7379722e-06,-8.073533e-06,4
-4.614113e-06,-9.638e-06,-1.5106432e-06,2.55798e-06,-2.4008448e-06,9.547002e-07,-9.295144e-07,-1.9202284e-05,5.9299755e-06,3.6267202e-06,-1.402255e-06,-7.5699845e-06,4
-4.2779907e-06,-6.28127e-06,-8.392462e-07,2.5584654e-06,-1.692116e-06,9.552012e-07,-1.0967756e-06,-1.7351835e-05,5.7625552e-06,3.6267202e-06,-1.2343868e-06,-1.0087723e-05,4
-2.5990769e-06,-3.428087e-06,-6.7139695e-07,2.391101e-06,-1.5017222e-06,3.3055912e-06,-8.909302e-08,-9.123109e-06,4.420192e-06,2.2839265e-06,-1.9057637e-06,-1.1430517e-05,4
-4.166156e-07,-7.1356155e-08,-1.3427939e-06,3.7739312e-07,-7.22594e-07,4.6488863e-06,3.6041772e-06,2.630456e-06,2.5742818e-06,-7.3736e-07,-2.0735959e-06,-8.073533e-06,4
1.9336942e-06,3.2853764e-06,-2.5177385e-06,4.2177312e-08,9.932912e-07,2.9708951e-06,8.9759415e-06,1.2705532e-05,5.605243e-07,-2.3381217e-07,-1.7378769e-06,-2.0309596e-06,4
2.2698132e-06,5.2993155e-06,-3.524834e-06,-6.287396e-07,2.694259e-06,1.4607522e-06,1.0822868e-05,1.8920082e-05,-2.7828733e-07,1.948228e-06,-1.2343111e-06,7.0328992e-06,4
1.7666849e-06,6.3061602e-06,-4.1962307e-06,-1.2996555e-06,4.3126456e-06,1.4612532e-06,1.09913035e-05,2.2784745e-05,8.970929e-07,3.6267202e-06,-5.934737e-08,1.3579021e-05,4
3.613445e-06,5.6345134e-06,-5.035477e-06,-2.6419716e-06,5.021497e-06,1.9653012e-06,1.2502534e-05,2.5642319e-05,1.9046261e-06,4.2981173e-06,1.7870133e-06,1.4586114e-05,4
5.6280546e-06,5.6342637e-06,-4.1962307e-06,-3.1450409e-06,4.7082035e-06,2.9728992e-06,1.1999574e-05,2.4471514e-05,2.2407633e-06,5.6409112e-06,2.626277e-06,1.139698e-05,4
8.314061e-06,6.4732594e-06,-2.0141908e-06,-1.6339201e-06,4.6481105e-06,4.148343e-06,1.2335858e-05,2.011158e-05,5.6271085e-07,8.997896e-06,1.9548993e-06,6.0258044e-06,4
9.489423e-06,5.801615e-06,-5.706874e-06,7.164436e-07,4.6856267e-06,5.9951863e-06,1.3847085e-05,1.7430144e-05,-1.1153401e-06,1.2858429e-05,-1.2342183e-06,9.903263e-07,4
8.9862915e-06,2.6122311e-06,-1.3595788e-05,2.3954112e-06,4.8758116e-06,7.338481e-06,1.3679821e-05,1.3405917e-05,-1.4505953e-06,1.5376167e-05,-1.2342e-06,-1.6952616e-06,4
7.979613e-06,-1.584248e-06,-7.721065e-06,2.7315837e-06,5.1514303e-06,5.49264e-06,1.2337613e-05,1.0556639e-05,-1.618e-06,1.4033374e-05,2.1228032e-06,-2.7023568e-06,4
8.651426e-06,-2.2558916e-06,1.2588693e-05,4.410548e-06,5.0211584e-06,3.3111019e-06,9.988307e-06,1.0057256e-05,-2.1211024e-06,1.2019182e-05,3.6334643e-06,-2.3666578e-06,4
8.651841e-06,1.4365456e-06,3.121996e-05,6.4252104e-06,4.0363293e-06,1.6331098e-06,8.3104005e-06,1.5768297e-05,-1.7849575e-06,1.0340689e-05,3.6334823e-06,-3.5246669e-07,4
6.6380653e-06,3.9540405e-06,3.8773174e-05,9.279118e-06,3.3048655e-06,1.8014598e-06,7.6395845e-06,2.4836332e-05,-2.7916053e-06,7.487253e-06,1.6193103e-06,1.4938744e-06,4
5.2956852e-06,2.275304e-06,3.743038e-05,1.2133024e-05,3.174654e-06,3.9840006e-06,5.4581305e-06,3.0043835e-05,-4.4696476e-06,4.9695145e-06,-2.2412057e-06,2.5009692e-06,4
7.645988e-06,1.9393613e-06,2.9373618e-05,1.465123e-05,3.7003995e-06,6.1665423e-06,2.6052762e-06,2.9880168e-05,-5.4762913e-06,2.9553235e-06,-2.912584e-06,3.1723673e-06,4
1.3017577e-05,3.2819112e-06,1.3931487e-05,1.3141054e-05,3.6403444e-06,7.0062893e-06,-2.4296155e-06,2.1827593e-05,-4.636593e-06,9.411325e-07,7.801167e-07,5.8579544e-06,4
1.6374974e-05,5.799409e-06,-4.3640803e-06,9.113139e-06,3.3423462e-06,6.335394e-06,-8.639456e-06,5.3825584e-06,-4.132591e-06,-1.4087568e-06,1.4515304e-06,8.039995e-06,4
1.7382481e-05,7.141959e-06,-2.2491799e-05,4.749523e-06,3.4318825e-07,5.328798e-06,-1.0653062e-05,-1.3580208e-05,-5.139231e-06,-4.5978923e-06,1.0875587e-07,8.543542e-06,4
1.5200853e-05,6.3024727e-06,-4.0451665e-05,7.216038e-07,-3.073839e-06,4.322205e-06,-8.80614e-06,-2.9521687e-05,-5.9780223e-06,-8.122726e-06,1.1158673e-06,7.704295e-06,4
8.990842e-06,4.6237396e-06,-5.4215303e-05,-1.6278217e-06,-2.5325312e-06,2.9799119e-06,-6.6235175e-06,-4.495961e-05,-4.2990714e-06,-9.801218e-06,1.7872827e-06,5.3544063e-06,4
3.6200765e-06,2.2736117e-06,-5.4551e-05,-5.3200433e-06,-1.3355265e-06,1.3019196e-06,-5.9515373e-06,-6.1068924e-05,-1.7808732e-06,-8.626274e-06,4.44506e-07,3.6759143e-06,4
-5.757437e-07,-7.479142e-07,-3.6758982e-05,-1.0690759e-05,-3.074049e-06,-8.796196e-07,-6.118807e-06,-6.47574e-05,-1.9482616e-06,-6.444234e-06,1.9551662e-06,3.3402164e-06,4
-3.2609234e-06,-1.4195496e-06,-9.567407e-06,-1.4382985e-05,-5.3861177e-06,-2.557611e-06,-8.468114e-06,-5.065384e-05,-1.7799505e-06,-5.940686e-06,4.8086204e-06,3.3402164e-06,4
-8.6316895e-06,-2.5947322e-06,4.5319293e-06,-1.3711128e-05,-4.6927294e-06,-3.7320551e-06,-1.4174407e-05,-4.8635426e-05,-7.723921e-07,-6.7799324e-06,3.4658433e-06,2.6688194e-06,4
-1.6520196e-05,-6.7912e-06,4.5319293e-06,-9.85014e-06,-2.906405e-06,-5.0743492e-06,-1.6691565e-05,-7.3137184e-05,-2.1147202e-06,-4.5978923e-06,9.4812134e-07,6.546283e-07,4
-1.9541074e-05,-1.1155517e-05,5.2033265e-06,-7.4997924e-06,-3.0363708e-06,-8.59868e-06,-1.3166152e-05,-6.5411885e-05,-3.1213501e-06,-5.695107e-07,-7.303548e-07,-2.3666578e-06,4
-1.7022929e-05,-1.5687681e-05,5.8747232e-06,-7.667189e-06,-4.692943e-06,-1.04445235e-05,-7.4586974e-06,1.1299451e-05,-1.6102388e-06,3.1231725e-06,-5.62489e-07,-3.7094521e-06,4
-1.0476402e-05,-2.0219846e-05,5.8747232e-06,-1.00166235e-05,-5.4243455e-06,-9.436928e-06,-1.9190913e-06,0.000108824104,1.0758176e-06,3.6267202e-06,2.767757e-07,-1.6952616e-06,4
-3.0906303e-06,-2.022008e-05,6.5461204e-06,-1.1191117e-05,-4.3793043e-06,-6.7508386e-06,5.4668544e-06,0.00017126826,2.3704163e-07,-2.0801538e-06,4.446413e-07,-2.0309596e-06,4
-1.076034e-06,-1.6359782e-05,6.5461204e-06,-8.337227e-06,-3.3503582e-06,-2.3862572e-06,1.5706237e-05,0.00018738605,-3.287321e-06,-9.1298225e-06,-1.2338352e-06,-3.7094521e-06,4
-7.7895975e-06,-1.5520769e-05,5.035477e-06,-3.4691484e-06,-3.07465e-06,-8.751136e-07,2.0742293e-05,0.00016993398,-4.7974913e-06,-1.1311862e-05,-2.2409147e-06,-5.052246e-06,4
-1.5845957e-05,-1.787089e-05,-1.3427939e-06,-1.2866591e-06,-2.7009473e-06,-1.8817091e-06,1.7385886e-05,0.00013838257,-4.29347e-06,-9.969067e-06,-1.2338023e-06,-7.737834e-06,4
-1.5845553e-05,-1.9885312e-05,-1.4435034e-05,-4.307498e-06,-3.3505626e-06,-3.2240025e-06,1.3358083e-05,0.00011455225,-4.7965414e-06,-6.108535e-06,-2.2669106e-07,-1.1094819e-05,4
-5.1027987e-06,-1.8039202e-05,-2.2491799e-05,-9.006829e-06,-5.424732e-06,-2.719953e-06,1.0840922e-05,0.00011354942,-3.4532711e-06,-1.9123047e-06,-1.0659209e-06,-1.1430517e-05,4
1.1514679e-05,-1.1493311e-05,-1.8799115e-05,-8.670684e-06,-4.0438717e-06,-2.0480566e-06,8.323764e-06,0.00012463176,2.3989153e-07,2.9553235e-06,-1.9051497e-06,-1.0087723e-05,4
2.6789361e-05,-7.5118896e-07,-1.3595788e-05,-3.634762e-06,-3.2947744e-07,-1.879707e-06,8.49219e-06,0.00011221518,6.6186417e-06,6.6480065e-06,1.0905728e-07,-9.752024e-06,4
2.9139652e-05,1.6704902e-05,-1.3763638e-05,5.8364897e-08,7.8550426e-07,-1.8792067e-06,9.667711e-06,6.169684e-05,9.640409e-06,6.144459e-06,4.4477122e-07,-1.075912e-05,4
1.655136e-05,4.3392705e-05,-1.4938582e-05,8.980526e-07,-6.8701223e-07,-2.3822533e-06,6.9826992e-06,-1.2488232e-05,5.276812e-06,3.1231725e-06,1.09089086e-07,-7.402135e-06,4
1.4453295e-06,6.269514e-05,-1.4267185e-05,1.4020432e-06,-1.6724667e-06,-1.710357e-06,-6.639207e-08,-9.573717e-05,-5.974277e-07,2.1160772e-06,9.4834985e-07,-8.5601465e-07,4
-6.4431865e-06,6.0009326e-05,-1.2420844e-05,1.7381825e-06,2.8177544e-07,-1.7098566e-06,-8.793974e-06,-0.00016052267,-7.6479256e-07,1.6125294e-06,1.4519126e-06,3.3402164e-06,4
-9.296223e-06,3.6678055e-05,-1.1413748e-05,1.0672238e-06,3.6769468e-06,-7.022603e-07,-1.6850163e-05,-0.00021003389,2.42483e-06,2.6973555e-07,2.626873e-06,5.1865572e-06,4
-1.1142166e-05,3.6115277e-06,-1.3763638e-05,-4.303514e-06,4.3699156e-06,3.053349e-07,-1.9199477e-05,-0.00026407707,-2.1066112e-06,-4.0943446e-06,4.137533e-06,2.3331204e-06,4
-1.2820259e-05,-2.1062535e-05,-1.6113527e-05,-1.8066716e-05,3.8064313e-06,4.7368414e-07,-1.8023957e-05,-0.0002853896,-1.8891045e-05,-8.626274e-06,3.1304521e-06,-6.881657e-07,4
-1.6344697e-05,-2.727318e-05,-1.0238804e-05,-2.9815725e-05,3.844679e-06,1.6491293e-06,-1.9869723e-05,-0.0002608793,-3.718612e-05,-8.458425e-06,7.805785e-07,-2.0309596e-06,4
-2.1211927e-05,-2.0391584e-05,5.2033265e-06,-2.8472497e-05,2.3555394e-06,1.8174785e-06,-2.389753e-05,-0.00023687253,-4.608164e-05,-3.087249e-06,1.09197735e-07,-1.3595627e-06,4
-2.6582706e-05,-1.2167195e-05,1.762417e-05,-1.3701329e-05,-5.4274178e-08,-2.3782513e-06,-2.5575448e-05,-0.00022109038,-3.9702878e-05,1.276831e-06,7.806089e-07,1.6617233e-06,4
-2.9771447e-05,-6.124844e-06,2.4841687e-05,6.1053133e-06,-1.5266077e-06,-5.0633403e-06,-1.9028752e-05,-0.00014051843,-1.972832e-05,4.633816e-06,3.130513e-06,3.8437634e-06,4
-2.7924709e-05,4.4494373e-06,3.8605325e-05,2.1883574e-05,-1.3373252e-06,-4.7271424e-06,-5.7680877e-06,-1.6641352e-05,4.9460123e-06,6.3123084e-06,3.8019261e-06,2.6688194e-06,4
-1.8860457e-05,1.5023718e-05,6.0257877e-05,2.9269371e-05,9.5265403e-07,-2.2089023e-06,7.492573e-06,5.553816e-05,2.458487e-05,4.2981173e-06,1.619901e-06,-6.881657e-07,4
-5.7678203e-06,1.4016405e-05,7.502861e-05,3.0276895e-05,2.669516e-06,1.3164316e-06,1.9242596e-05,5.8563783e-05,3.465632e-05,-2.5837016e-06,1.7877647e-06,-3.373754e-06,4
3.967828e-06,1.2596416e-06,6.697184e-05,2.8263134e-05,2.3551809e-06,4.3382183e-06,2.763563e-05,3.607633e-05,3.2306936e-05,-8.9619725e-06,3.8019705e-06,1.5108033e-07,4
6.8216586e-06,-4.111752e-06,3.709468e-05,2.4067329e-05,1.9595868e-06,4.3387186e-06,2.8475446e-05,6.2035115e-06,2.005444e-05,-9.1298225e-06,3.8019853e-06,9.718488e-06,4
3.1293678e-06,4.1126436e-06,1.0070954e-05,1.836088e-05,1.4944675e-06,3.8356693e-06,2.2433449e-05,-2.7026284e-05,8.1376475e-06,-6.108535e-06,2.9627518e-06,1.8446648e-05,4
1.2834186e-06,1.2672738e-05,4.5319293e-06,1.2822281e-05,-1.6273164e-07,1.3184309e-06,1.62236e-05,-1.3409957e-06,1.7598803e-06,-6.444234e-06,2.7949172e-06,2.415352e-05,4
5.3121908e-06,1.0994029e-05,9.903105e-06,7.4515287e-06,-2.4046526e-06,-1.0309583e-06,1.4545676e-05,0.000102562044,-1.4287491e-06,-1.0472615e-05,1.4521378e-06,2.2810727e-05,4
8.837415e-06,5.6226386e-06,1.0574502e-05,6.658481e-08,-4.2125034e-06,-1.1983096e-06,1.4714096e-05,0.00015376043,-2.7710373e-06,-1.2486807e-05,-2.2633992e-07,1.1229129e-05,4
7.998559e-06,2.4332874e-06,3.0212864e-06,-6.982662e-06,-5.3662266e-06,3.1283403e-07,1.505037e-05,6.530825e-05,-3.2740763e-06,-9.465521e-06,-5.6202464e-07,-3.373754e-06,4
4.4741155e-06,2.768771e-06,-8.3924615e-06,-1.2353416e-05,-6.0974894e-06,1.8239766e-06,1.6729431e-05,-5.8895814e-05,-3.441417e-06,-2.0801538e-06,2.772375e-07,-8.57708e-06,4
4.6423534e-06,1.9293116e-06,-2.232395e-05,-1.7052775e-05,-6.394637e-06,1.4598419e-07,2.3611821e-05,-7.7186996e-05,-3.440906e-06,6.144459e-06,1.0940258e-07,-6.7307383e-06,4
1.0013918e-05,2.5060663e-07,-4.179446e-05,-1.9402249e-05,-5.702088e-06,-2.0355562e-06,3.2676253e-05,-1.2057114e-05,-2.433298e-06,9.669293e-06,-1.2333784e-06,-7.234286e-06,4
1.0350004e-05,-3.4422897e-06,-6.697184e-05,-1.772334e-05,-6.4333362e-06,-3.042153e-06,3.485886e-05,4.182688e-05,-9.221417e-07,9.333594e-06,6.129775e-07,-1.3948255e-05,4
2.7943614e-07,-1.8884632e-05,-9.047074e-05,-1.3023146e-05,-7.905369e-06,-3.2095024e-06,3.0159648e-05,5.6602006e-05,-7.537779e-07,7.487253e-06,1.9557854e-06,-2.4187058e-05,4
-1.0462528e-05,-3.9026752e-05,-8.92958e-05,-7.819403e-06,-7.884285e-06,-3.544701e-06,1.9417868e-05,5.157092e-05,-1.4246579e-06,2.6196249e-06,1.1165521e-06,-2.8886838e-05,4
-1.1133538e-05,-4.5069533e-05,-5.975433e-05,-4.294156e-06,-4.754988e-06,-2.5371057e-06,4.479857e-06,4.351856e-05,-8.134718e-08,-7.3736e-07,-2.262283e-07,-2.4187058e-05,4
-2.0692935e-06,-3.3655997e-05,-3.121996e-05,-2.6152518e-06,-1.5271819e-06,-6.9026555e-07,-8.10827e-06,3.1437816e-05,1.5976641e-06,-1.4087568e-06,-8.976117e-07,-1.7976638e-05,4
8.337744e-06,-1.7374827e-05,-1.8966964e-05,-6.006495e-07,-2.1775666e-06,-1.8621836e-07,-1.717156e-05,6.2648414e-06,4.283772e-06,1.948228e-06,-7.297492e-07,-1.3948255e-05,4
1.5555646e-05,-5.625589e-06,-1.3092241e-05,2.7567467e-06,-2.9087864e-06,-6.892672e-07,-2.623485e-05,-3.737155e-05,5.962786e-06,4.633816e-06,-1.4011318e-06,-1.0087723e-05,4
2.1095055e-05,4.1677748e-07,-5.5390246e-06,4.099949e-06,-2.0308105e-06,-1.8637131e-06,-3.580169e-05,-8.923255e-05,4.284816e-06,4.2981173e-06,-7.297225e-07,-5.3879444e-06,4
2.2438231e-05,1.9272138e-06,1.8463417e-06,2.5897136e-06,-3.3137397e-07,-1.6953651e-06,-4.4193584e-05,-0.000128337,-2.4658902e-07,8.997896e-06,-5.8311294e-08,-2.0309596e-06,4
1.5724645e-05,2.4851593e-07,7.217517e-06,-9.546664e-08,2.8021444e-07,-3.5412072e-06,-5.1914085e-05,-0.00013403945,-4.9458417e-06,2.0411644e-05,1.0955185e-07,-1.3595627e-06,4
4.311279e-06,-3.1086754e-06,5.8747232e-06,7.2788e-08,6.547037e-07,-4.715654e-06,-4.805298e-05,-0.000108521934,-6.120261e-06,2.8468407e-05,-1.4010791e-06,-1.3595627e-06,4
-3.0737076e-06,-5.458769e-06,-3.1891354e-06,2.7587805e-06,2.689768e-06,-3.3723604e-06,-3.160319e-05,-7.696184e-05,-5.616184e-06,2.8971956e-05,-1.2332171e-06,-1.8461768e-07,4
-5.5558655e-07,-7.1374648e-06,-1.1245899e-05,5.444772e-06,4.6441633e-06,3.2082147e-07,-1.6496195e-05,-5.144432e-05,-5.7835045e-06,2.0747342e-05,-5.825923e-08,6.546283e-07,4
5.655215e-06,-4.45208e-06,-1.09102e-05,6.28442e-06,4.5151655e-06,1.6641142e-06,-1.179585e-05,-4.3047417e-05,-4.6080286e-06,8.997896e-06,1.09603576e-07,6.546283e-07,4
4.9841988e-06,-2.1023943e-06,-8.7281605e-06,4.7741783e-06,4.36812e-06,1.4967638e-06,-1.5823665e-05,-5.0092636e-05,-4.103949e-06,4.801665e-06,1.09616295e-07,6.546283e-07,4
9.561958e-07,-1.766897e-06,-6.378271e-06,2.7603871e-06,2.2941495e-06,3.0079066e-06,-2.018718e-05,-4.1360025e-05,-7.1247014e-06,9.669293e-06,2.291668e-06,1.8295723e-06,4
1.9636693e-06,-7.60002e-07,-5.2033265e-06,2.425087e-06,-6.882263e-07,4.351199e-06,-1.9850919e-05,-1.1646255e-05,-1.0649001e-05,1.4033374e-05,3.9701736e-06,9.903263e-07,4
6.6638268e-06,-4.2450438e-07,-4.1962307e-06,3.4325797e-06,-2.0102877e-06,2.3375046e-06,-1.850756e-05,1.336774e-05,-1.0144918e-05,1.3361977e-05,2.291693e-06,-3.5246669e-07,4
1.1531832e-05,1.757336e-06,-5.035477e-07,4.440072e-06,-7.2725857e-07,1.330909e-06,-1.5150011e-05,2.0421872e-05,-6.451697e-06,1.4201223e-05,1.1167604e-06,9.903263e-07,4
1.6064138e-05,4.946272e-06,4.1962307e-06,3.7690706e-06,-1.8474029e-07,9.957093e-07,-1.2463858e-05,2.1265583e-05,-3.4298725e-06,1.5711865e-05,1.4524707e-06,1.9974214e-06,4
1.5896665e-05,5.6174727e-06,4.3640803e-06,2.0909729e-06,-1.171171e-06,-5.144353e-07,-1.0449104e-05,2.5130592e-05,-1.4151404e-06,1.8733152e-05,1.2846338e-06,1.5108033e-07,4
8.6795235e-06,3.0995352e-06,2.5177385e-06,2.259215e-06,4.4757016e-07,-1.521034e-06,-5.7487623e-06,2.9834844e-05,1.2709885e-06,2.158659e-05,1.116797e-06,-1.0238647e-06,4
9.588338e-07,1.5886944e-06,1.1245899e-05,3.2667022e-06,3.6757363e-06,1.579571e-07,9.657706e-07,2.3293203e-05,9.35832e-07,2.158659e-05,1.284658e-06,1.3260253e-06,4
-3.90842e-06,1.9241984e-06,2.635233e-05,3.267093e-06,5.0391236e-06,2.0047962e-06,8.519548e-06,3.323629e-06,-4.0991004e-06,1.8397453e-05,1.7882189e-06,6.697201e-06,4
-7.097182e-06,2.259702e-06,3.743038e-05,2.7639358e-06,3.3008955e-06,3.6837873e-06,1.3052039e-05,-6.5749887e-06,-8.9661835e-06,1.4033374e-05,3.1310237e-06,1.374687e-05,4
-7.768204e-06,3.2666012e-06,4.0787367e-05,3.4357201e-06,3.0042875e-06,6.034174e-06,1.4898939e-05,2.3642366e-05,-8.965637e-06,6.983705e-06,3.4667346e-06,1.5257512e-05,4
-4.075149e-06,6.623392e-06,3.944457e-05,5.4503e-06,6.0460975e-06,1.0230904e-05,1.6410146e-05,8.340119e-05,-6.783049e-06,-3.926495e-06,2.1239523e-06,1.00541865e-05,4
2.8930242e-07,7.965993e-06,2.6688029e-05,8.136273e-06,8.671965e-06,1.274914e-05,1.9096296e-05,0.00013090704,-4.7683084e-06,-1.5843792e-05,1.6204168e-06,4.0116124e-06,4
1.296771e-06,5.783761e-06,1.1749447e-06,8.472357e-06,7.200472e-06,1.2749638e-05,2.0103951e-05,0.00014501087,-1.551011e-05,-2.6586144e-05,-2.2591462e-07,9.903263e-07,4
-1.724145e-06,2.5944332e-06,-2.4673838e-05,6.9620974e-06,3.3603924e-06,9.896698e-06,1.4397636e-05,0.00013779786,-4.1022642e-05,-3.799989e-05,-2.240094e-06,-3.5246669e-07,4
-8.605593e-06,4.1220204e-07,-3.692683e-05,7.1303302e-06,6.150985e-07,6.708061e-06,6.173585e-06,0.0001409915,-5.9989055e-05,-4.4210312e-05,-1.5686849e-06,-3.038055e-06,4
-1.2130058e-05,4.1201153e-07,-3.2394903e-05,8.641355e-06,3.1861092e-07,4.8622164e-06,2.3136115e-06,0.00015408827,-5.7302906e-05,-4.0685478e-05,-3.9372958e-07,-7.402135e-06,4
-8.772704e-06,9.1536873e-07,-1.4435034e-05,8.473886e-06,2.3531845e-06,3.687769e-06,-1.3785123e-06,0.00012841185,-3.4642704e-05,-3.330011e-05,-8.972664e-07,-1.0087723e-05,4
-3.0654621e-06,5.7948165e-07,1.6617074e-05,7.802868e-06,4.307684e-06,2.1776225e-06,-6.7491283e-06,1.6628783e-05,-7.4505747e-06,-2.927173e-05,-1.9043493e-06,-1.1094819e-05,4
6.275899e-07,-7.6350074e-07,5.2368963e-05,9.481739e-06,3.3398592e-06,8.3532774e-07,-9.4341585e-06,-0.00012587069,1.3027592e-05,-2.927173e-05,-3.2471323e-06,-1.2101914e-05,4
6.279573e-07,2.4340756e-07,7.754635e-05,1.2503402e-05,1.5138285e-06,-1.010517e-06,-7.7551085e-06,-0.00017907437,2.4441899e-05,-2.9439581e-05,-4.5899164e-06,-1.2101914e-05,4
-4.575003e-06,2.2574116e-06,8.174258e-05,1.5189366e-05,1.6220032e-06,-1.6814179e-06,-5.7403577e-06,-0.00010823746,2.914224e-05,-2.9439581e-05,-4.0863583e-06,-1.2773311e-05,4
-9.442264e-06,2.5929232e-06,6.697184e-05,1.8211027e-05,3.3398258e-06,-2.5201657e-06,-3.054215e-06,-3.6628342e-06,3.1828393e-05,-3.0278827e-05,-2.9114017e-06,-1.6465994e-05,4
-8.770501e-06,1.9213408e-06,4.884413e-05,1.9554194e-05,2.352973e-06,-1.5125747e-06,-5.35918e-07,4.988562e-05,3.4178844e-05,-3.2964414e-05,-1.9042951e-06,-2.6536949e-05,4
-8.434438e-06,-2.6088512e-07,3.4073397e-05,1.4519091e-05,-2.070769e-06,-8.4067983e-07,2.3180758e-06,5.0561564e-05,3.5857902e-05,-3.3971508e-05,-7.2934154e-07,-4.0132738e-05,4
-1.3469552e-05,-4.7929984e-06,1.9974059e-05,1.4272214e-06,-5.3883646e-06,-3.022224e-06,3.6614254e-06,3.260625e-05,3.5690617e-05,-3.0278827e-05,7.8131296e-07,-4.567176e-05,4
-1.4811982e-05,-6.4716737e-06,1.1749447e-05,-1.3007444e-05,-5.200342e-06,-3.6931233e-06,4.3333816e-06,8.2726665e-06,3.4012694e-05,-2.4571951e-05,2.1241174e-06,-2.60334e-05,4
-8.433347e-06,-1.4363794e-06,1.4435034e-05,-2.039244e-05,-3.0779463e-06,-3.6926265e-06,6.348126e-06,-2.4117677e-05,2.8642085e-05,-1.8025832e-05,2.1241276e-06,1.9118044e-05,4
-1.2154669e-06,5.9488057e-06,1.4267185e-05,-2.0895623e-05,-1.6957047e-06,-4.195678e-06,8.362874e-06,-5.1808234e-05,2.1257289e-05,-1.0472615e-05,2.963383e-06,5.8898313e-05,4
3.316825e-06,1.0648401e-05,-5.035477e-07,-2.1230953e-05,-1.3399032e-06,-3.3559354e-06,8.866976e-06,-6.120322e-05,1.5718835e-05,-3.4229477e-06,4.138339e-06,7.182271e-05,4
4.6599803e-06,9.305429e-06,-2.18204e-05,-2.492327e-05,-1.3995319e-06,-2.348343e-06,7.6925835e-06,-4.777071e-05,9.341137e-06,1.6125294e-06,2.9634032e-06,5.10094e-05,4
7.0102305e-06,6.451811e-06,-3.709468e-05,-2.7440643e-05,-2.53497e-06,-2.5156958e-06,7.693137e-06,-1.6881875e-05,1.6206465e-06,3.458871e-06,9.4922314e-07,6.5293525e-06,4
1.0367576e-05,8.130123e-06,-4.1458763e-05,-2.2572653e-05,-3.0184858e-06,-2.5151994e-06,6.3508996e-06,8.635791e-06,-2.4071599e-06,1.948228e-06,-5.61411e-07,-2.9390385e-05,4
9.52869e-06,1.3333272e-05,-3.944457e-05,-1.19977885e-05,-2.238854e-06,-1.8433072e-06,6.1836045e-06,9.8153205e-06,-4.085075e-06,-4.0166148e-07,-8.970992e-07,-4.231478e-05,4
4.1578724e-06,1.5179436e-05,-3.6087586e-05,-1.5907741e-06,-6.886427e-07,-3.3216713e-07,7.0234028e-06,-2.4330852e-06,-2.9095534e-06,-1.7444554e-06,1.1171015e-06,-4.0804134e-05,4
8.0124653e-07,8.297439e-06,-3.121996e-05,4.1164585e-06,5.062631e-07,6.754229e-07,7.695351e-06,-4.442683e-06,-7.2693405e-07,-2.751551e-06,2.1242072e-06,-3.3922315e-05,4
-1.3804366e-06,-4.794977e-06,-2.433814e-05,5.4596126e-06,1.7894597e-06,1.0116188e-06,7.360206e-06,1.0836195e-05,2.807428e-07,-2.4158524e-06,2.1242167e-06,-2.183717e-05,4
-2.7228734e-06,-1.15091225e-05,-1.6784923e-05,4.956422e-06,2.8361812e-06,1.0121146e-06,5.6822673e-06,2.9136363e-05,9.527208e-07,1.7803786e-06,1.6206792e-06,-3.7094521e-06,4
-3.692886e-08,-1.0166504e-05,-9.735256e-06,3.7818334e-06,2.3525247e-06,1.7336332e-07,4.843574e-06,3.216225e-05,-5.3791346e-08,1.3026278e-05,6.1359253e-07,1.374687e-05,4
5.670301e-06,-7.816789e-06,-6.5461204e-06,2.4393944e-06,1.2858461e-06,1.348804e-06,6.1869187e-06,1.3703446e-05,-3.8890502e-07,3.1153995e-05,-5.6134417e-07,2.3314275e-05,4
9.027642e-06,-4.2921274e-06,-6.378271e-06,3.1111456e-06,1.157683e-06,4.0348864e-06,8.033812e-06,-1.6672655e-05,-1.3954144e-06,4.8442467e-05,4.4576205e-07,2.5832014e-05,4
8.524448e-06,-9.6070316e-08,-5.2033265e-06,4.4542926e-06,2.3524487e-06,5.378176e-06,1.07199485e-05,-3.4292207e-05,-2.4019234e-06,5.7338475e-05,2.1242631e-06,2.2810727e-05,4
7.853406e-06,-4.319404e-07,-3.1891354e-06,6.300986e-06,3.2999783e-06,7.3928622e-06,1.6763073e-05,-2.2202443e-05,-1.8977871e-06,5.4149343e-05,4.80986e-06,1.5928908e-05,4
9.86795e-06,-2.1106048e-06,-2.0141908e-06,6.804884e-06,3.5075723e-06,9.743248e-06,2.6834576e-05,1.9260942e-05,-2.4007456e-06,3.8875063e-05,6.152662e-06,1.5089663e-05,4
1.0707549e-05,-2.4464734e-06,-3.1891354e-06,5.294591e-06,3.1916227e-06,8.904496e-06,3.1199208e-05,5.4849606e-05,-5.0857416e-06,1.8397453e-05,3.802783e-06,3.590297e-05,4
5.6724243e-06,-3.4537384e-06,-4.867628e-06,2.7772003e-06,2.628526e-06,6.387254e-06,2.784277e-05,3.6726524e-05,-8.274285e-06,-4.0166148e-07,1.2850518e-06,7.2829804e-05,4
-2.048288e-06,-3.6217566e-06,-5.8747232e-06,-2.4373864e-07,1.3255351e-06,4.709256e-06,2.0290105e-05,-3.561186e-05,-1.0287883e-05,-1.3158203e-05,2.7796648e-07,0.00010807814,4
-3.390732e-06,-2.782679e-06,-6.5461204e-06,-7.4694174e-07,1.70271e-07,2.6955597e-06,1.4080229e-05,-5.0042257e-05,-1.14622335e-05,-2.3732706e-05,6.136731e-07,0.00012956285,4
3.0230163e-07,-2.7828469e-06,-8.224612e-06,1.771143e-06,9.499826e-07,2.1925055e-06,7.534657e-06,5.1511175e-05,-1.112594e-05,-2.7761087e-05,7.815306e-07,0.00011546352,4
3.6596366e-06,-4.797205e-06,-1.0574502e-05,2.7785816e-06,9.898457e-07,4.71074e-06,-1.6965014e-06,0.00015524666,-9.4468505e-06,-2.255776e-05,1.4529351e-06,5.8226917e-05,4
5.674177e-06,-5.1330703e-06,-1.09102e-05,1.771829e-06,-1.340434e-06,5.3826307e-06,-4.045844e-06,0.00017153268,-7.935608e-06,-1.5172394e-05,1.9564923e-06,-3.038055e-06,4
3.6603344e-06,-2.7833462e-06,-9.399558e-06,-2.4202075e-07,-3.4141422e-06,2.3618381e-06,4.179314e-06,0.00012873577,-6.256516e-06,-1.1144013e-05,2.1243495e-06,-3.5600806e-05,4
-3.6769848e-07,4.0562495e-07,-1.2924392e-05,-2.5915717e-06,-3.3742201e-06,-9.946505e-07,1.3747269e-05,8.409254e-05,-3.0667786e-06,-9.801218e-06,1.9565089e-06,-4.3657572e-05,4
-1.038749e-06,1.9161037e-06,-2.2827497e-05,-2.5912327e-06,-1.3404914e-06,-6.584582e-07,1.6433403e-05,4.2302738e-05,-2.0590803e-06,-7.2834796e-06,9.494209e-07,-4.5336063e-05,4
-3.6700422e-07,1.7480902e-06,-2.9205767e-05,-3.094442e-06,1.1065084e-07,6.84829e-07,1.08949225e-05,-1.5012442e-06,-4.4083667e-06,-3.087249e-06,-1.9040071e-06,-5.2889278e-05,4
-1.373754e-06,-6.0196163e-07,-2.7862974e-05,-1.9191593e-06,1.3255747e-06,1.188872e-06,4.685049e-06,-3.0702344e-05,-6.7576507e-06,-1.9123047e-06,-4.421739e-06,-6.279238e-05,4
-3.663124e-07,-1.7770687e-06,-1.9470512e-05,9.5365984e-08,3.0235349e-06,8.5366804e-07,-3.8747185e-06,-6.0239134e-05,-5.4142506e-06,-6.444234e-06,-5.260976e-06,-7.1520546e-05,4
5.0052085e-06,1.0762069e-06,-8.3924615e-06,2.7812882e-06,3.9711454e-06,-4.886321e-07,-1.8477058e-05,-0.00013173824,-3.7351508e-06,-1.181541e-05,-3.918177e-06,-8.461278e-05,4
9.537482e-06,3.929484e-06,2.0141908e-06,1.7745263e-06,4.682582e-06,-2.6701784e-06,-3.3918644e-05,-0.00022254,-3.2309943e-06,-1.5843792e-05,-3.414619e-06,-0.000101901256,4
9.034277e-06,7.2863095e-06,9.903105e-06,2.1105561e-06,5.2055266e-06,-4.1803287e-06,-4.5331846e-05,-0.00022958497,-3.0625351e-06,-1.5172394e-05,-3.2467624e-06,-0.00011600059,4
5.341938e-06,9.300341e-06,1.2252995e-05,8.321308e-06,4.6425107e-06,-5.6904782e-06,-5.036678e-05,-9.798648e-05,-4.069019e-06,-4.7657413e-06,-2.911057e-06,-0.00011818263,4
3.3280894e-06,9.132334e-06,1.1917296e-05,1.3860663e-05,1.9970223e-06,-7.704176e-06,-5.170903e-05,5.8957252e-05,-5.4112e-06,1.4033374e-05,-3.2467476e-06,-0.00011499349,4
9.874551e-06,9.971421e-06,1.1917296e-05,1.4700237e-05,-2.0120349e-06,-9.550025e-06,-4.700871e-05,9.689587e-05,-3.3963963e-06,2.8468407e-05,-3.2467403e-06,-0.00010710458,4
2.2967133e-05,7.6213746e-06,8.7281605e-06,1.0336485e-05,-3.4142781e-06,-9.7173815e-06,-3.1733885e-05,2.6068197e-05,6.326012e-07,2.8971956e-05,-2.407488e-06,-8.108795e-05,4
3.1863485e-05,2.4178923e-06,4.867628e-06,5.301334e-06,-2.702725e-06,-7.534847e-06,-1.2430682e-05,-2.3610473e-05,2.647408e-06,2.0747342e-05,-8.968379e-07,-3.6943602e-05,4
3.4381563e-05,3.5926796e-06,1.1245899e-05,1.105427e-06,-1.6763748e-06,-5.0166163e-06,3.851234e-06,1.2359211e-06,3.151574e-06,1.3026278e-05,-5.611328e-07,1.9453742e-05,4
2.9849973e-05,4.5996208e-06,2.433814e-05,-1.5798363e-06,1.1176277e-06,-3.0019323e-06,1.1069293e-05,6.166635e-05,4.6628356e-06,6.815856e-06,-1.7360688e-06,8.8104076e-05,4
1.6254522e-05,-7.717084e-07,2.9037918e-05,-4.600801e-06,2.6684875e-06,-3.0014396e-06,1.0901984e-05,0.00010312984,4.1599083e-06,9.411325e-07,-3.246705e-06,0.00012603801,4
-8.586827e-06,-5.80734e-06,3.743038e-05,-1.3664338e-05,1.3448769e-06,-4.008041e-06,6.202748e-06,0.0001039738,1.1392439e-06,-2.4158524e-06,-3.0788492e-06,9.1293216e-05,4
-3.5945915e-05,-4.6325467e-06,6.0090028e-05,-2.7763352e-05,-3.0786198e-06,-6.6931375e-06,-2.69272e-06,0.00010532132,-1.3778719e-06,-3.087249e-06,-3.2466914e-06,7.0328992e-06,4
-4.6855777e-05,-5.1362476e-06,7.9896236e-05,-3.7498292e-05,-6.3953303e-06,-7.867589e-06,-9.741851e-06,0.00013923159,-7.058519e-07,-3.2550986e-06,-3.414534e-06,-6.0442493e-05,4
-3.8630827e-05,-9.500479e-06,7.888914e-05,-3.5483783e-05,-5.369123e-06,-8.0349455e-06,-1.04127075e-05,0.00015837113,1.3401961e-07,-3.087249e-06,-3.2466783e-06,-8.0248705e-05,4
-3.1412976e-05,-1.48718045e-05,6.160067e-05,-2.4237565e-05,-4.0857285e-06,-7.698755e-06,-5.040993e-06,0.00013588407,-3.390188e-06,-2.4158524e-06,-3.582371e-06,-7.1520546e-05,4
-2.7552109e-05,-1.6382599e-05,3.9108872e-05,-9.9700665e-06,-4.716792e-06,-6.8590175e-06,-3.4067665e-07,6.94205e-05,-6.0751486e-06,-5.695107e-07,-3.2466655e-06,-5.8428304e-05,4
-2.1844902e-05,-9.836626e-06,1.5945678e-05,2.7867911e-06,-4.3620507e-06,-2.8301445e-06,-1.7228952e-07,-4.5719335e-05,-1.3747394e-06,1.4446802e-06,-8.9677127e-07,-4.197908e-05,4
-2.083747e-05,2.3417984e-07,-4.3640803e-06,1.0340319e-05,-1.7358477e-06,1.7022774e-06,-3.864435e-06,-0.00014843832,2.3185737e-06,1.4446802e-06,2.1245219e-06,-1.0255572e-05,4
-2.6208314e-05,4.0945642e-06,-2.4673838e-05,1.285837e-05,9.901316e-07,4.052658e-06,-8.395827e-06,-0.00016354,3.9976976e-06,9.411325e-07,3.131623e-06,4.026705e-05,4
-3.292195e-05,-2.7874019e-06,-4.46479e-05,1.084449e-05,1.5126506e-06,3.3817537e-06,-1.242367e-05,-0.00015900332,7.1874656e-06,-2.0801538e-06,2.79593e-06,9.73358e-05,4
-3.5942907e-05,-1.4536995e-05,-6.4621956e-05,7.9913625e-06,-7.28755e-07,6.966561e-07,-1.762646e-05,-0.00023620922,7.355949e-06,-1.0640465e-05,2.7959359e-06,0.00015104754,4
-3.4096232e-05,-2.2090357e-05,-7.855344e-05,5.473933e-06,-1.8632503e-06,-3.4990826e-06,-2.3500648e-05,-0.00029746944,2.6568055e-06,-2.4236253e-05,2.1245457e-06,0.00019720609,4
-2.8221177e-05,-2.1922651e-05,-7.67071e-05,4.3876204e-07,-3.1871423e-06,-7.0234255e-06,-2.5850002e-05,-0.00022310746,-3.049432e-06,-3.363581e-05,2.2924005e-06,0.0002289296,4
-2.1171178e-05,-1.688732e-05,-6.210422e-05,-5.6035037e-06,-5.092834e-06,-7.862181e-06,-2.1149688e-05,-8.932685e-05,-6.741477e-06,-3.3132263e-05,3.6352003e-06,0.00024370033,4
-1.244269e-05,-1.0341342e-05,-5.6229495e-05,-7.281691e-06,-5.052326e-06,-6.686745e-06,-1.2756692e-05,4.002099e-06,-6.40514e-06,-2.7593238e-05,4.474452e-06,0.00024957507,4
-1.8936694e-07,-5.4738566e-06,-5.8075835e-05,-5.6028953e-06,-4.3620985e-06,-5.0077624e-06,-7.049281e-06,3.6066078e-05,-2.0404188e-06,-2.272561e-05,1.9567192e-06,0.0002299367,4
1.3574599e-05,-2.6205616e-06,-5.052262e-05,-2.0777588e-06,-5.7642255e-06,-4.3358737e-06,-2.5168172e-06,1.7943135e-05,1.8207545e-06,-2.1214968e-05,-2.0716584e-06,0.00018495308,4
2.1128142e-05,-2.1171559e-06,-3.508049e-05,4.4028042e-07,-6.3950556e-06,-1.8176452e-06,4.3655355e-06,-2.193993e-06,1.9892468e-06,-2.1550666e-05,-3.750144e-06,0.00013056996,4
2.0624922e-05,-3.4600894e-06,-1.963836e-05,4.4689627e-06,-3.690709e-06,3.0504743e-06,1.3429926e-05,4.5247602e-06,3.1139876e-07,-1.7857983e-05,-1.0645517e-06,9.196462e-05,4
1.8107508e-05,-5.977968e-06,-1.1078049e-05,1.151893e-05,6.1405706e-07,7.079346e-06,2.249432e-05,2.819629e-05,-1.9150407e-07,-7.787028e-06,6.139464e-07,7.2829804e-05,4
1.693289e-05,-7.824448e-06,-1.5945678e-05,1.6051157e-05,2.5010236e-06,7.5833827e-06,2.853742e-05,6.093168e-05,-3.5870664e-07,1.948228e-06,-1.9037865e-06,5.436638e-05,4
1.3744079e-05,7.357243e-07,-2.5680933e-05,1.454081e-05,6.7336987e-07,5.401833e-06,2.6523765e-05,9.299569e-05,-1.9020979e-07,4.633816e-06,-4.0858235e-06,3.2881682e-05,4
9.044625e-06,2.373093e-05,-3.1891355e-05,1.0512724e-05,-3.9178576e-06,2.0453379e-06,1.7963983e-05,0.00010508562,-2.7073e-06,1.276831e-06,-4.925064e-06,1.4753963e-05,4
9.212798e-06,4.3872704e-05,-3.1891355e-05,7.156034e-06,-5.555668e-06,-2.4861004e-06,1.1754096e-05,6.161747e-05,-5.3922367e-06,-3.5907972e-06,-3.7501138e-06,1.8295723e-06,4
1.609494e-05,4.5215365e-05,-2.2995346e-05,5.4778343e-06,-3.3550084e-06,-4.331953e-06,1.1754626e-05,-1.9113204e-05,-3.7130933e-06,-1.0136917e-05,-2.0716182e-06,-1.294116e-05,4
2.2473534e-05,2.8094606e-05,-7.5532157e-06,4.4710305e-06,6.140927e-07,-3.1565191e-06,1.5783538e-05,-4.864986e-05,6.516398e-07,-1.5843792e-05,-2.7430094e-06,-3.3586617e-05,4
2.129891e-05,8.959655e-06,1.5945678e-05,2.7928288e-06,1.8297783e-06,-1.9810848e-06,2.1155241e-05,2.000529e-05,3.002183e-06,-1.5172394e-05,-4.757196e-06,-4.7853802e-05,4
1.508881e-05,-1.1114315e-06,3.793393e-05,1.07530354e-07,-1.658673e-07,-2.3162934e-06,2.7701892e-05,8.127507e-05,9.886471e-07,-7.6191786e-06,-5.2607384e-06,-4.7685953e-05,4
1.0053654e-05,-3.4614548e-06,5.1361865e-05,-3.7527134e-06,-3.4142633e-06,-2.4836534e-06,3.30736e-05,5.7109606e-05,-1.528434e-06,-6.596297e-08,-4.0857913e-06,-4.130768e-05,4
1.2236013e-05,-7.759993e-07,6.697184e-05,-4.9273713e-06,-3.7091647e-06,-2.1474664e-06,3.424907e-05,2.6398018e-05,-1.3599273e-06,6.6480065e-06,-2.4072938e-06,-4.0132738e-05,4
1.9118152e-05,5.937839e-06,7.77142e-05,-2.2730642e-07,-1.0051004e-06,-1.327865e-07,3.4585297e-05,4.1677125e-05,1.9977158e-06,1.1347785e-05,-1.2323446e-06,-4.5000364e-05,4
2.381825e-05,1.2651678e-05,4.9179827e-05,5.983399e-06,2.628338e-06,4.231781e-06,3.2235937e-05,5.645269e-05,5.0196622e-06,1.1012086e-05,-5.6094456e-07,-4.835735e-05,4
2.3818566e-05,1.634423e-05,-1.1245899e-05,9.508517e-06,3.1727418e-06,8.932049e-06,2.6529591e-05,4.135109e-05,4.5167762e-06,1.017284e-05,1.1175524e-06,-4.7014557e-05,4
2.1636844e-05,1.3994212e-05,-4.0283816e-05,9.508799e-06,5.05559e-07,8.42899e-06,2.0151847e-05,1.3325101e-05,2.5032475e-06,1.0844237e-05,2.1246524e-06,-4.567176e-05,4
1.710523e-05,7.951508e-06,-2.0141908e-06,8.501985e-06,2.784834e-07,5.7438897e-06,1.1759912e-05,-1.738647e-05,-1.6923195e-06,1.4369071e-05,1.2854092e-06,-4.5000364e-05,4
9.720181e-06,5.6601465e-07,3.8941023e-05,8.837964e-06,1.1586428e-06,4.2337347e-06,-9.961052e-07,-7.025414e-05,-6.7271317e-06,2.0411644e-05,6.14017e-07,-4.3321874e-05,4
6.5663687e-07,-2.1197018e-06,2.4002442e-05,9.677488e-06,1.6805241e-06,4.402074e-06,-1.3919969e-05,-0.00013453554,-4.0408772e-06,2.8132708e-05,2.4603617e-06,-4.130768e-05,4
-9.7497e-06,-4.8054158e-06,-1.7456321e-05,1.0181314e-05,2.6284115e-06,1.2134257e-06,-2.785093e-05,-0.00015500831,3.5130054e-06,3.7867965e-05,1.4532693e-06,-4.0804134e-05,4
-2.1834534e-05,-1.1687361e-05,-3.6423284e-05,7.160304e-06,2.3336856e-06,-5.5000564e-06,-4.262114e-05,-0.00013788282,9.724096e-06,4.5085482e-05,-1.4001632e-06,-4.2986172e-05,4
-2.9387435e-05,-1.6890812e-05,-2.3834591e-05,2.292951e-06,1.0091527e-06,-1.0031499e-05,-4.6481146e-05,-0.00012142875,8.046274e-06,4.8274618e-05,-2.9108028e-06,-4.600746e-05,4
-2.8547876e-05,-1.4541048e-05,-3.3248867e-20,-3.077951e-06,2.785661e-07,-9.359615e-06,-3.624182e-05,-0.000118402604,-1.7766769e-07,4.9953112e-05,-2.4072524e-06,-4.7685953e-05,4
-2.6029824e-05,-6.316558e-06,1.1245899e-05,-8.616702e-06,3.1959607e-07,-7.0092374e-06,-2.4827548e-05,-0.00011269086,-5.7160205e-06,4.592473e-05,-2.7429473e-06,-4.8860897e-05,4
-2.3847471e-05,-1.7847523e-06,6.881819e-06,-1.331621e-05,-1.340705e-06,-7.680147e-06,-2.130219e-05,-8.901925e-05,-8.065236e-06,3.7364418e-05,-3.91789e-06,-4.9364444e-05,4
-1.780459e-05,-1.7848747e-06,3.3569847e-07,-1.4323036e-05,-3.4140685e-06,-1.0197399e-05,-2.2812312e-05,-6.820108e-05,-9.071657e-06,3.1993244e-05,-2.5750921e-06,-5.1210787e-05,4
-1.2265254e-05,-3.4634884e-06,1.0070954e-06,-1.3315671e-05,-3.372981e-06,-1.0700459e-05,-2.7175869e-05,-5.0068487e-05,-7.728187e-06,3.0818297e-05,6.1404694e-07,-5.2889278e-05,4
-1.3943437e-05,-5.4778e-06,7.888914e-06,-1.0629814e-05,-2.683465e-06,-1.0532123e-05,-3.3553617e-05,-2.8075357e-05,-6.8882628e-06,3.1489693e-05,1.2854458e-06,-5.272143e-05,4
-2.1160644e-05,-1.0513398e-05,1.6449225e-05,-1.0461698e-05,-2.7426195e-06,-1.0363788e-05,-4.2784803e-05,-4.2841213e-05,-7.3911333e-06,3.2161093e-05,-5.7344344e-08,-5.2050033e-05,4
-2.6363663e-05,-1.2192009e-05,2.0645457e-05,-1.1972075e-05,-3.7085701e-06,-8.1812605e-06,-5.2015992e-05,-0.00012508246,-6.3833577e-06,3.3168184e-05,-1.5679847e-06,-5.070724e-05,4
-2.1831427e-05,6.0865425e-08,2.0645457e-05,-1.2307509e-05,-4.02622e-06,-6.502283e-06,-5.7890193e-05,-0.00020144896,3.3129368e-07,3.719657e-05,-5.60888e-07,-4.9028746e-05,4
-1.1760165e-05,1.6006425e-05,1.7288472e-05,-1.0796603e-05,-4.7567514e-06,-6.669646e-06,-6.14145e-05,-0.00019372303,1.0738629e-05,4.0721403e-05,7.8190953e-07,-4.600746e-05,4
-2.8638487e-06,1.5334912e-05,9.567407e-06,-7.271507e-06,-5.2190967e-06,-7.844104e-06,-5.436432e-05,-0.00010224029,1.5942638e-05,3.6693018e-05,9.4976104e-07,-4.399327e-05,4
4.353975e-06,6.7744836e-06,8.392462e-07,-2.2357701e-06,-2.5155325e-06,-7.0043725e-06,-2.9354263e-05,9.918928e-07,1.3761282e-05,2.5111423e-05,2.783674e-07,-4.2986172e-05,4
1.1739647e-05,3.5852318e-06,-6.210422e-06,1.14379475e-07,1.4537309e-06,-1.1291648e-06,-1.3229209e-06,4.6819638e-05,7.8872445e-06,1.5711865e-05,-2.2517932e-07,-4.2818323e-05,4
1.845392e-05,7.949197e-06,-1.3595788e-05,4.503359e-07,4.3484292e-06,4.7460458e-06,1.6469618e-05,5.1860017e-05,3.6917008e-06,8.494349e-06,9.4976787e-07,-4.5000364e-05,4
2.1811209e-05,7.4455365e-06,-2.450599e-05,1.1219901e-06,4.0306363e-06,6.425024e-06,2.3687653e-05,7.754586e-05,2.3495952e-06,1.4446802e-06,2.460413e-06,-4.3154025e-05,4
2.3322154e-05,-5.143271e-06,-4.2465857e-05,2.6328892e-06,1.7894981e-06,5.75411e-06,2.1841826e-05,0.00011968093,1.3431893e-06,-5.772837e-06,2.460415e-06,-3.9797036e-05,4
2.4329553e-05,-2.0417665e-05,-6.227207e-05,2.800994e-06,6.558708e-07,4.91535e-06,1.8821062e-05,0.00014083483,1.0854766e-09,-1.6011641e-05,1.4533209e-06,-4.0300587e-05,4
2.2147815e-05,-2.9145936e-05,-7.100023e-05,7.8705557e-07,1.8486505e-06,3.908739e-06,1.8318027e-05,0.00013647568,-1.0053179e-06,-2.9103881e-05,4.4622882e-07,-4.5000364e-05,4
1.2916408e-05,-2.89782e-05,-5.7572288e-05,-2.066128e-06,2.460967e-06,1.8950327e-06,1.529726e-05,0.000103582155,-8.3677594e-07,-4.219612e-05,6.1407957e-07,-4.9867995e-05,4
3.3493018e-06,-2.1089396e-05,-2.3666742e-05,-5.2550117e-06,1.5245304e-07,1.3919703e-06,1.0430146e-05,3.6111676e-05,6.7456165e-07,-5.0085033e-05,1.1176282e-06,-5.221788e-05,4
1.3354116e-06,-9.675758e-06,1.9302663e-05,-5.2547616e-06,-2.1796745e-06,2.7352487e-06,8.752171e-06,-1.1720428e-05,1.1788052e-06,-5.5456214e-05,7.819319e-07,-5.0035844e-05,4
-8.063848e-06,5.6293743e-07,5.1194016e-05,-2.736776e-06,-2.4065855e-06,3.9106767e-06,1.02633285e-05,-1.6918824e-05,-6.668407e-07,-6.0323844e-05,7.8193335e-07,-4.5000364e-05,4
-3.4751578e-05,4.255512e-06,5.0858318e-05,1.1240047e-06,-1.3580561e-06,3.5754629e-06,1.3452979e-05,-9.528525e-06,-2.3446348e-06,-6.5359316e-05,2.7961248e-06,-3.8957794e-05,4
-5.841802e-05,2.2702314e-07,2.9541467e-05,3.306291e-06,-1.6542106e-07,3.0723997e-06,1.8488969e-05,1.0954019e-05,-2.679635e-06,-6.93877e-05,5.146016e-06,-3.4425862e-05,4
-6.748158e-05,-2.2908239e-06,1.4267185e-05,2.1315923e-06,6.147829e-07,3.7442794e-06,2.3021414e-05,4.0500425e-05,-2.3432358e-06,-6.9052e-05,5.985263e-06,-2.7376194e-05,4
-7.083827e-05,-2.7944773e-06,6.881819e-06,-8.894507e-07,-1.5125574e-08,3.744763e-06,2.3189776e-05,5.510825e-05,-3.1817804e-06,-6.3512976e-05,3.8032256e-06,-1.5458898e-05,4
-5.7074336e-05,-1.017995e-05,-2.1820401e-06,-1.5606039e-06,-1.1724479e-06,3.0738504e-06,2.08404e-05,5.175621e-05,-4.1881735e-06,-5.4113418e-05,2.7961296e-06,-2.3666578e-06,4
-1.0123983e-06,-1.0180054e-05,-5.035477e-06,1.2930748e-06,-2.07072e-06,4.0814275e-06,1.9498118e-05,4.3200846e-05,-3.348224e-06,-4.1356874e-05,3.1318295e-06,7.3685974e-06,4
8.2744664e-05,9.290355e-06,1.0238804e-05,4.146751e-06,-2.0291734e-06,7.438896e-06,2.0002179e-05,3.5316887e-05,6.808634e-07,-2.8600334e-05,2.9639805e-06,1.00541865e-05,4
0.00013326759,2.8760762e-05,2.8366521e-05,4.8183883e-06,-1.5080752e-06,1.0628514e-05,1.7149252e-05,3.3139804e-05,4.8778e-06,-2.054357e-05,3.2996813e-06,6.0258044e-06,4
0.00011715435,2.6075071e-05,2.8366521e-05,4.315077e-06,-7.2783445e-07,1.1132545e-05,1.161074e-05,4.0865827e-05,5.717754e-06,-1.6515189e-05,2.963982e-06,-2.0309596e-06,4
6.512138e-05,7.947251e-06,1.5945678e-05,3.1403702e-06,-6.862307e-07,1.0125933e-05,7.079319e-06,4.053509e-05,3.0328747e-06,-1.1144013e-05,3.4675318e-06,-6.7307383e-06,4
2.7187742e-05,-4.305844e-06,6.210422e-06,7.9071566e-07,-1.6758489e-06,9.455018e-06,5.233489e-06,2.811921e-05,2.6978857e-06,-2.248003e-06,3.1318332e-06,-4.716547e-06,4
1.7117078e-05,-4.473793e-06,5.706874e-06,-1.0790646e-05,-2.070534e-06,8.4484045e-06,2.3805608e-06,2.1745906e-05,3.369994e-06,6.6480065e-06,1.1176427e-06,-1.0238647e-06,4
1.5942425e-05,-9.49059e-07,1.1245899e-05,-3.4121458e-05,6.567157e-07,5.595449e-06,-4.836447e-06,2.7122052e-05,6.851182e-07,1.16834835e-05,-2.2515093e-07,-2.0309596e-06,4
1.2082182e-05,1.736429e-06,1.7288472e-05,-5.04026e-05,2.184765e-06,3.0781935e-06,-7.0179767e-06,4.7604637e-05,-6.028139e-06,1.2019182e-05,1.1176434e-06,-7.402135e-06,4
1.023613e-05,1.5684808e-06,2.0645457e-05,-4.2849155e-05,1.11608024e-07,3.4143732e-06,1.7106914e-06,7.3458395e-05,-1.4755585e-05,8.997896e-06,3.2996845e-06,-1.5794598e-05,4
1.3089856e-05,8.969873e-07,2.232395e-05,-1.2300364e-05,-2.5322634e-06,5.261196e-06,1.4803438e-05,8.286293e-05,-2.6504315e-05,6.3123084e-06,4.1389308e-06,-2.3683511e-05,4
1.5775731e-05,3.5824776e-06,2.7695125e-05,2.3283903e-05,-4.3612695e-06,7.108019e-06,2.1517915e-05,6.457235e-05,-4.0267238e-05,7.3194037e-06,1.4533417e-06,-2.7040496e-05,4
1.6447417e-05,7.2750663e-06,3.508049e-05,4.9132912e-05,-4.0845193e-06,8.451294e-06,2.0847026e-05,1.9593741e-05,-4.5637695e-05,1.0676388e-05,1.10549664e-07,-2.7544043e-05,4
1.1747924e-05,8.953462e-06,3.8773174e-05,6.222538e-05,-2.3642526e-06,7.4446793e-06,1.8161943e-05,-3.4616576e-05,-4.160859e-05,1.2354881e-05,1.4533415e-06,-2.9893934e-05,4
3.1878992e-06,8.114122e-06,3.692683e-05,6.625398e-05,-3.327983e-07,5.4309694e-06,1.4301918e-05,-5.8110476e-05,-2.901918e-05,1.0676388e-05,2.4604374e-06,-3.4258013e-05,4
-7.0506194e-06,6.603385e-06,3.2059204e-05,6.256153e-05,1.7903143e-06,5.095752e-06,1.1448986e-05,-4.064916e-05,-1.0219343e-05,9.501443e-06,2.796135e-06,-3.6607904e-05,4
-1.8631932e-05,3.0784577e-06,2.6016633e-05,5.3833588e-05,3.6784866e-06,4.7605345e-06,1.1449491e-05,-2.8223316e-05,6.734153e-06,1.0676388e-05,4.1389294e-06,-3.8622096e-05,4
-2.9877547e-05,-2.2928107e-06,2.0645457e-05,4.443425e-05,5.7098696e-06,5.6002596e-06,1.0778599e-05,-2.2007893e-05,1.4623791e-05,1.1179935e-05,5.1460243e-06,-3.9964885e-05,4
-3.3569948e-05,-5.8177366e-06,1.5274281e-05,3.4027817e-05,6.3223574e-06,7.78278e-06,8.093519e-06,2.5834146e-05,7.406999e-06,7.487253e-06,5.8174205e-06,-2.4522758e-05,4
-2.4841505e-05,-4.139334e-06,9.231708e-06,2.009655e-05,6.0285474e-06,8.454657e-06,8.261872e-06,0.000104392595,-1.8776756e-05,2.6973555e-07,6.824516e-06,1.9453742e-05,4
-4.8671623e-06,2.246566e-07,-2.1820401e-06,4.8224874e-06,5.3742706e-06,6.6087964e-06,9.773017e-06,0.00014652776,-4.1603522e-05,-9.465521e-06,6.1531173e-06,6.628368e-05,4
1.7792767e-05,1.7352091e-06,-2.7359425e-05,-1.0787276e-05,4.308285e-06,4.762934e-06,1.145201e-05,0.000105409716,-3.354603e-05,-1.9032927e-05,3.2996802e-06,8.390786e-05,4
2.5514113e-05,-1.6218645e-06,-6.243992e-05,-2.1361564e-05,2.000341e-06,4.2598645e-06,1.2123913e-05,-7.883502e-06,3.0458305e-06,-2.1214968e-05,-8.9655265e-07,7.2829804e-05,4
1.4100645e-05,-8.168072e-06,-9.282063e-05,-2.0522102e-05,-1.0038964e-06,4.2603438e-06,1.0110222e-05,-0.00010204191,3.9973394e-05,-1.852938e-05,-3.917841e-06,4.8659513e-05,4
-3.341104e-07,-1.6560622e-05,-0.00011564812,-1.2968676e-05,-2.7412593e-06,2.9180308e-06,7.760833e-06,-8.844109e-05,5.6255503e-05,-1.7018736e-05,-4.9249356e-06,2.902115e-05,4
-5.0336107e-06,-2.9820798e-05,-0.00012874037,-2.8975098e-06,-4.209901e-06,1.5757146e-06,7.0899378e-06,-1.13932665e-05,6.0116767e-05,-1.9872174e-05,-3.917843e-06,2.0125139e-05,4
-1.8441965e-06,-4.0059687e-05,-0.00011984436,9.3556955e-06,-6.039266e-06,6.555018e-08,8.936781e-06,4.0980725e-05,5.5417724e-05,-2.4236253e-05,-3.2464452e-06,1.8446648e-05,4
2.855859e-06,-3.7374186e-05,-8.76173e-05,1.9762558e-05,-6.937361e-06,-9.4106633e-07,1.1119319e-05,4.9378217e-05,4.199052e-05,-2.289346e-05,-1.9036526e-06,1.8446648e-05,4
8.73086e-06,-2.394633e-05,-4.6829937e-05,2.530179e-05,-4.041867e-06,4.0220493e-07,1.16233705e-05,3.89766e-05,3.1584605e-05,-1.1479711e-05,-1.903654e-06,2.0125139e-05,4
1.5612954e-05,-1.1861268e-05,-1.2588693e-05,2.2784257e-05,1.0105152e-06,2.752573e-06,1.095247e-05,3.1092724e-05,2.9403302e-05,6.05434e-07,-1.9036555e-06,1.978944e-05,4
2.0145158e-05,-5.4830793e-06,7.049668e-06,1.1874263e-05,2.7980268e-06,3.08875e-06,1.313501e-05,2.589444e-05,3.158608e-05,4.2981173e-06,-7.2871416e-07,1.6768156e-05,4
2.0313284e-05,-2.1261776e-06,1.1917296e-05,-7.142271e-07,3.2240322e-07,3.7606237e-06,1.6492493e-05,2.1199703e-05,2.8565537e-05,5.473062e-06,-3.9301688e-07,1.4082568e-05,4
1.544593e-05,-2.7991692e-07,7.888914e-06,-1.0784977e-05,-2.178503e-06,3.9289503e-06,1.7164388e-05,1.7176368e-05,1.7823924e-05,1.017284e-05,-1.0644156e-06,1.1732678e-05,4
6.3823436e-06,1.3984945e-06,3.1891354e-06,-1.7330898e-05,-2.2373138e-06,1.7473875e-06,1.3472201e-05,1.4495831e-05,7.753713e-06,1.50404685e-05,-1.9036626e-06,1.2739773e-05,4
-3.6883375e-06,2.2347166e-07,1.1749447e-06,-2.2366174e-05,-1.6915948e-06,-6.0202433e-07,9.1086185e-06,1.6179376e-05,8.7263817e-07,1.7390357e-05,-2.5750626e-06,1.5089663e-05,4
-6.7093524e-06,1.0626376e-06,3.8605326e-06,-2.4380168e-05,-3.185475e-06,1.2447947e-06,3.7379377e-06,2.5416137e-05,-5.0013396e-06,1.5376167e-05,-1.9036665e-06,1.6768156e-05,4
-4.1913413e-06,7.944378e-06,7.049668e-06,-2.0015887e-05,-5.7620055e-06,4.0987074e-06,-2.1362873e-06,3.6331396e-05,-8.357579e-06,1.16834835e-05,1.105223e-07,1.8446648e-05,4
-1.6733323e-06,1.1301286e-05,9.231708e-06,-1.14553795e-05,-7.566119e-06,4.770582e-06,-6.667722e-06,3.969344e-05,-1.0371023e-05,7.487253e-06,-8.965769e-07,1.9118044e-05,4
-1.6730622e-06,8.615621e-06,1.4770733e-05,-3.2305707e-06,-4.8638403e-06,2.7568674e-06,-6.499378e-06,3.6509373e-05,-1.4734355e-05,3.2910218e-06,-2.4072222e-06,1.777525e-05,4
-5.701174e-06,3.9157667e-06,2.9037918e-05,2.4764977e-06,-1.0620787e-06,-5.9964145e-07,-4.9882406e-06,3.0136169e-05,-1.64121e-05,-2.4158524e-06,-2.0715265e-06,1.5089663e-05,4
-1.1072081e-05,1.5658001e-06,4.7669182e-05,4.490882e-06,-3.483991e-07,-2.9490554e-06,-7.0019364e-06,1.5706202e-05,-1.6075648e-05,-4.2621937e-06,-8.9658414e-07,1.4753963e-05,4
-9.393321e-06,5.258409e-06,6.1264975e-05,3.3161289e-06,-2.3459718e-06,-2.6128796e-06,-9.687032e-06,-1.836212e-05,-1.2550062e-05,1.276831e-06,-1.4001337e-06,1.8782346e-05,4
3.4220128e-07,1.21401545e-05,5.6565194e-05,3.4841685e-06,-4.083214e-06,-5.982141e-07,-1.0525784e-05,-7.30759e-05,-6.8424356e-06,7.9908e-06,-3.0786284e-06,2.1467935e-05,4
5.042248e-06,1.6000613e-05,3.776608e-05,8.184137e-06,-4.8801194e-06,4.093563e-07,-8.343252e-06,-0.00010966195,-4.4917924e-06,1.3026278e-05,-5.092822e-06,2.0460837e-05,4
2.356926e-06,1.5329144e-05,2.198825e-05,1.4730445e-05,-4.1921767e-06,-1.1008125e-06,-3.1394354e-06,-0.00010160011,-6.673077e-06,1.9404548e-05,-6.603468e-06,1.8446648e-05,4
-6.640946e-07,7.608008e-06,1.8631266e-05,1.7919769e-05,-1.7331689e-06,-1.9395825e-06,3.8589013e-07,-8.61529e-05,-1.0197155e-05,3.7867965e-05,-5.428526e-06,1.559321e-05,4
-2.678022e-06,-6.827098e-06,2.6184482e-05,1.6241462e-05,1.5557002e-07,-1.9391077e-06,-2.8501475e-07,-9.537952e-05,-1.2210588e-05,6.472384e-05,-2.742942e-06,1.374687e-05,4
-5.699043e-06,-1.7569519e-05,3.5919737e-05,8.68843e-06,6.7559176e-07,-9.3153716e-07,-3.6415092e-06,-0.000110145156,-1.1706282e-05,7.815178e-05,-1.735849e-06,1.2739773e-05,4
-9.559312e-06,-2.0926573e-05,4.2465857e-05,-1.885887e-06,6.16882e-07,-1.7703097e-06,-4.983812e-06,-4.65252e-05,-1.0866277e-05,7.2780604e-05,-2.4072501e-06,1.1732678e-05,4
-1.0566146e-05,-2.0926642e-05,4.615854e-05,-1.1285264e-05,9.95032e-07,-1.4341376e-06,-1.4584883e-06,0.00010991538,-1.1033365e-05,5.6331384e-05,-4.4214444e-06,1.2739773e-05,4
-5.362557e-06,-1.689833e-05,4.6662088e-05,-1.598486e-05,1.5149819e-06,-5.9441663e-07,6.0952157e-06,0.00023245043,-1.0361206e-05,3.3839584e-05,-7.107035e-06,1.4921814e-05,4
1.0159753e-06,-9.51303e-06,4.0115967e-05,-1.6656077e-05,6.1704753e-07,4.1315218e-07,1.4488165e-05,0.00022473447,-1.03604425e-05,1.2354881e-05,-7.107038e-06,1.4082568e-05,4
2.694728e-06,7.6075266e-06,2.433814e-05,-1.7998695e-05,-2.0260334e-06,1.5885707e-06,1.784564e-05,0.00011563756,-1.1366774e-05,-6.444234e-06,-3.9179076e-06,9.718488e-06,4
4.0377818e-06,3.5806133e-05,5.2033265e-06,-1.8669913e-05,-5.0309873e-06,1.4211951e-06,1.4489141e-05,3.2053744e-05,-1.3044501e-05,-2.6753993e-05,-1.4001713e-06,6.0258044e-06,4
6.8914783e-06,5.5612276e-05,-5.706874e-06,-1.6823395e-05,-5.257505e-06,-9.2822074e-07,9.789852e-06,1.6113177e-05,-1.5393623e-05,-4.72316e-05,-2.2523102e-07,5.018708e-06,4
8.40238e-06,5.0912437e-05,-7.721065e-06,-1.3634086e-05,-3.3685992e-06,-3.4454868e-06,4.4191643e-06,2.8581985e-06,-1.3714363e-05,-6.133094e-05,2.783142e-07,6.86505e-06,4
7.395542e-06,3.144186e-05,-1.1245899e-05,-1.07804735e-05,-2.009548e-06,-4.6199602e-06,-2.801304e-07,-2.1721642e-06,-6.3282287e-06,-6.3512976e-05,-5.738867e-08,1.139698e-05,4
4.374514e-06,1.2139134e-05,-2.433814e-05,-1.0276754e-05,-3.4109885e-06,-6.8015265e-06,-9.679202e-06,1.881411e-05,5.081262e-08,-5.4281267e-05,-1.2323376e-06,1.6096757e-05,4
6.8208635e-07,1.7324188e-06,-4.0787367e-05,-1.04444325e-05,-6.0539573e-06,-1.0325888e-05,-2.5456546e-05,1.5307576e-06,2.7371714e-06,-4.2028274e-05,-1.5680397e-06,2.0460837e-05,4
-3.1781908e-06,2.2359063e-06,-4.9851224e-05,-5.9123345e-06,-7.0448664e-06,-9.821869e-06,-3.418422e-05,-6.023264e-05,3.2414916e-06,-3.2964414e-05,-5.7400808e-08,2.2139331e-05,4
-8.381262e-06,7.271323e-06,-5.270466e-05,3.99094e-06,-4.250056e-06,-6.80011e-06,-2.914826e-05,-0.00010168628,2.7387168e-06,-2.5579047e-05,1.621088e-06,2.1132237e-05,4
-1.3416485e-05,9.95685e-06,-5.1194016e-05,1.3390665e-05,-5.1469726e-07,-5.4568445e-06,-1.8908971e-05,-9.916341e-05,2.0680945e-06,-1.8025832e-05,1.6210837e-06,1.8614497e-05,4
-1.3416231e-05,8.613997e-06,-4.448005e-05,1.4733626e-05,1.012061e-06,-3.77788e-06,-1.0012478e-05,-5.954586e-05,3.9037818e-07,-1.3326052e-05,1.7889283e-06,1.2404074e-05,4
-8.716198e-06,4.5855563e-06,-3.524834e-05,8.523369e-06,-7.250377e-07,-3.2738617e-06,-1.2838354e-06,1.2206996e-06,-2.2944334e-06,-1.5340243e-05,3.2995667e-06,1.5108033e-07,4
-6.701756e-06,1.2285136e-06,-2.3331044e-05,2.1452618e-06,-2.3607993e-06,-5.9589797e-06,7.612655e-06,3.7481273e-05,-6.3220377e-06,-2.3564857e-05,2.4603153e-06,-1.41161045e-05,4
-7.708598e-06,-2.2963773e-06,-1.3595788e-05,-3.8971475e-06,-2.6804541e-06,-8.811943e-06,1.113797e-05,1.784805e-05,-8.838997e-06,-3.3971508e-05,-1.7359195e-06,-2.2844266e-05,4
-1.1065332e-05,-4.8141715e-06,-9.903105e-06,-1.2625147e-05,-5.5699985e-07,-8.979325e-06,8.4528665e-06,-5.310004e-06,-9.006067e-06,-3.867129e-05,-3.246567e-06,-2.0830073e-05,4
-1.375067e-05,-6.157021e-06,-8.5603115e-06,-1.9842504e-05,1.5718517e-07,-6.125417e-06,4.7606645e-06,1.3158557e-05,-9.340984e-06,-3.4810757e-05,-2.2528698e-07,-1.1430517e-05,4
-1.07291335e-05,-6.8284726e-06,-5.8747232e-06,-1.8163853e-05,-8.3393957e-07,-2.6001105e-06,5.60039e-06,3.4816254e-05,-7.997407e-06,-2.3732706e-05,-5.7441895e-08,-6.059341e-06,4
-5.022011e-06,-5.3178837e-06,-2.1820401e-06,-1.1953273e-05,-2.211084e-07,-3.1031896e-06,5.4330208e-06,4.1871073e-05,-4.807488e-06,-8.626274e-06,-2.910884e-06,-6.7307383e-06,4
-5.0217623e-06,-7.499977e-06,-2.1820401e-06,-6.581942e-06,3.2528322e-07,-3.7741158e-06,-2.7911149e-06,5.698266e-05,-3.967458e-06,4.9695145e-06,-1.903793e-06,-8.409231e-06,4
-1.2910429e-05,-1.1528411e-05,-3.0212864e-06,-2.8891038e-06,-2.0087086e-06,-5.1164416e-06,-1.7057819e-05,4.6581157e-05,-3.966672e-06,1.4872619e-05,2.7824186e-07,-1.1598367e-05,4
-2.650597e-05,-1.4885448e-05,-1.1749447e-06,-3.3924969e-06,-4.0814425e-06,-7.298011e-06,-2.4610557e-05,-3.398132e-05,-2.6230923e-06,2.1418738e-05,6.139346e-07,-2.183717e-05,4
-3.624098e-05,-1.5221197e-05,5.8747232e-06,-4.567289e-06,-4.374242e-06,-7.968939e-06,-2.1756643e-05,-0.00011806863,-2.724145e-07,2.3768629e-05,-2.2531775e-07,-3.7950696e-05,4
-3.439439e-05,-1.1528564e-05,1.3931487e-05,-3.5600415e-06,-3.18347e-06,-7.1292243e-06,-1.6552838e-05,-0.00012695946,3.997716e-07,1.906885e-05,-1.9038142e-06,-5.6414112e-05,4
-2.516244e-05,-3.9753977e-06,1.8966964e-05,-1.8813981e-06,-1.7313505e-06,-4.4431677e-06,-1.672021e-05,-0.000108323045,-6.065347e-07,1.1347785e-05,-4.0858617e-06,-6.262454e-05,4
-1.777683e-05,3.7456193e-06,1.8631266e-05,1.1400359e-06,-6.813009e-07,-2.428508e-06,-2.3433704e-05,-0.00014306267,-2.700445e-07,6.6480065e-06,-3.918018e-06,-4.600746e-05,4
-1.3748205e-05,5.591913e-06,1.4602883e-05,3.1543748e-06,1.7370118e-07,-2.4280398e-06,-3.0315046e-05,-0.00021355419,-1.014032e-07,8.662198e-06,-1.568133e-06,-1.9151583e-05,4
-1.0223128e-05,3.241975e-06,1.1078049e-05,3.6580693e-06,9.544449e-07,-3.602517e-06,-3.1825217e-05,-0.0002499723,-1.4434031e-06,1.4369071e-05,-2.2395368e-06,5.018708e-06,4
-6.8659006e-06,1.0598884e-06,6.5461204e-06,2.1475719e-06,3.3473439e-06,-4.609146e-06,-3.199259e-05,-0.00025584185,-2.6766457e-07,2.2090137e-05,-2.9109387e-06,2.1467935e-05,4
-7.872753e-06,-1.7935944e-06,2.3498894e-06,1.476319e-06,4.5379707e-06,-4.9443765e-06,-3.3838456e-05,-0.00025566883,1.2437744e-06,3.3168184e-05,-2.0716996e-06,3.1538886e-05,4
-1.2068745e-05,-2.6328855e-06,3.3569847e-07,1.3086129e-06,3.304547e-06,-5.6153053e-06,-3.685927e-05,-0.00019507005,-6.017716e-07,4.609258e-05,-5.610626e-07,3.2881682e-05,4
-1.5425489e-05,-2.4650808e-06,-3.3569847e-06,-2.5517793e-06,1.3334193e-06,-7.6290294e-06,-4.071933e-05,-9.267683e-05,-3.6222598e-06,5.398149e-05,-3.9321876e-07,2.4489218e-05,4
-1.307536e-05,3.883136e-07,-9.399558e-06,-1.1951195e-05,-1.6161292e-07,-7.2928633e-06,-3.316564e-05,-1.0089827e-05,-3.1179131e-06,4.9785263e-05,-1.064622e-06,1.4586114e-05,4
-3.675564e-06,4.416652e-06,-1.2420844e-05,-1.5979438e-05,1.9619695e-06,-2.7604688e-06,-1.35268065e-05,2.6506497e-05,7.2022e-08,3.5853776e-05,-1.4003263e-06,4.0116124e-06,4
3.374342e-06,5.560776e-07,-1.3595788e-05,-6.9154407e-06,5.3620743e-06,2.6111748e-06,4.433535e-06,3.423275e-05,3.597657e-06,1.8397453e-05,-8.9678565e-07,-8.409231e-06,4
-3.6750887e-06,-9.347069e-06,-1.544213e-05,9.533921e-06,7.056105e-06,4.457983e-06,1.2826466e-05,3.6587833e-05,3.598459e-06,3.458871e-06,9.4954993e-07,-1.965513e-05,4
-1.9116982e-05,-1.555753e-05,-1.5945678e-05,2.0947806e-05,5.990573e-06,4.4584485e-06,1.4001881e-05,4.3306998e-05,-1.604064e-06,-6.444234e-06,1.7887903e-06,-3.308307e-05,4
-3.321608e-05,-1.48861745e-05,-1.3427939e-05,2.1955035e-05,3.6838576e-06,5.1303105e-06,1.5009445e-05,5.539734e-05,-5.6316417e-06,-1.4165299e-05,1.1173858e-06,-5.2050033e-05,4
-5.822538e-05,-1.354342e-05,-9.567407e-06,1.3730555e-05,1.8529831e-06,4.291529e-06,1.7191956e-05,6.51378e-05,-5.2951373e-06,-1.9200776e-05,1.1028498e-07,-6.296023e-05,4
-9.431274e-05,-1.6229045e-05,-7.721065e-06,1.9812412e-06,6.1962277e-07,3.1170512e-06,2.1220807e-05,7.084988e-05,-2.273045e-06,-1.8025832e-05,1.4530701e-06,-6.0778195e-05,4
-9.162691e-05,-1.4550591e-05,-5.5390246e-06,-6.914638e-06,2.3413456e-06,6.306651e-06,2.8606642e-05,8.126173e-05,-1.2651415e-06,-1.0472615e-05,2.4601593e-06,-5.2050033e-05,4
-6.5271174e-06,1.5628976e-06,1.3427939e-06,-8.257302e-06,7.056518e-06,9.999799e-06,3.4649685e-05,9.637337e-05,-1.4321819e-06,-4.0166148e-07,2.6280013e-06,-4.2650474e-05,4
0.00011449242,2.2040469e-05,8.224612e-06,-8.089326e-06,1.2201451e-05,1.01681135e-05,3.7000038e-05,0.00010141406,-2.7741671e-06,5.8087608e-06,2.4601452e-06,-3.056533e-05,4
0.00016803655,2.6740212e-05,1.1581597e-05,-9.599843e-06,1.341968e-05,1.0504275e-05,3.73362e-05,8.899842e-05,-4.9553955e-06,5.473062e-06,3.299385e-06,-1.2101914e-05,4
0.00012456384,1.5829977e-05,2.3331044e-05,-1.1949605e-05,1.0078017e-05,9.161945e-06,3.565818e-05,6.819033e-05,-7.304475e-06,2.2839265e-06,3.9707747e-06,1.2571923e-05,4
5.4738783e-05,3.9126485e-06,4.380865e-05,-1.1613783e-05,7.3340575e-06,6.9803696e-06,3.129457e-05,5.2753425e-05,-1.1332043e-05,9.411325e-07,5.3135605e-06,3.2210286e-05,4
1.8819273e-05,-1.157677e-07,5.706874e-05,-8.928071e-06,7.713096e-06,6.3094362e-06,2.3573968e-05,3.7652215e-05,-1.4352516e-05,6.05434e-07,5.98495e-06,3.7917158e-05,4
1.5462518e-05,2.1989986e-07,5.471885e-05,-5.5709643e-06,7.5604967e-06,6.4777496e-06,1.2832081e-05,2.3054554e-05,-1.1330414e-05,-2.0801538e-06,5.4813945e-06,2.7510505e-05,4
1.9826826e-05,-7.8722786e-07,4.0787367e-05,-2.2138595e-06,6.8307504e-06,5.8068135e-06,2.2580427e-06,1.1981728e-05,2.6018895e-06,-5.4371385e-06,3.4671968e-06,8.375693e-06,4
1.9155657e-05,-3.976395e-06,2.2659648e-05,2.150341e-06,6.034899e-06,5.4715783e-06,-6.9732e-06,8.462121e-06,2.1401822e-05,-4.5978923e-06,1.4529973e-06,-2.1988087e-06,4
1.4456105e-05,-4.312123e-06,7.217517e-06,6.0109915e-06,4.3715836e-06,5.807739e-06,-1.3183159e-05,2.1223892e-05,2.8620158e-05,3.6267202e-06,1.10197504e-07,3.3402164e-06,4
1.31135375e-05,-1.6265656e-06,-7.049668e-06,7.186054e-06,2.8026125e-06,5.8082014e-06,-1.8386025e-05,2.6264603e-05,1.888572e-05,1.6718961e-05,-8.9690735e-07,1.8782346e-05,4
1.59672e-05,-1.15951245e-07,-2.232395e-05,6.8504705e-06,2.5103643e-06,5.4729653e-06,-2.4428133e-05,-5.957218e-06,7.137094e-06,2.6789914e-05,-3.2468033e-06,4.0602747e-05,4
1.680667e-05,1.2268148e-06,-3.8269627e-05,7.85768e-06,2.3576204e-06,4.8020315e-06,-2.3588425e-05,-3.314356e-05,1.76674e-06,2.779701e-05,-4.253908e-06,6.0744653e-05,4
1.4792705e-05,1.2267875e-06,-5.2201114e-05,7.522096e-06,2.6350126e-06,3.124001e-06,-1.1334971e-05,-1.1150069e-05,4.2476915e-07,1.906885e-05,-2.7432725e-06,5.956971e-05,4
1.1771642e-05,-1.16032986e-07,-5.740444e-05,5.1723187e-06,2.6785171e-06,2.6209145e-06,2.0934303e-06,1.8900186e-05,1.7683861e-06,6.815856e-06,-1.9040336e-06,3.4224475e-05,4
5.7292914e-06,-1.6267018e-06,-4.9179827e-05,1.3695248e-07,1.6864539e-06,2.7892247e-06,6.1222718e-06,-1.5721778e-06,7.621156e-07,-2.4158524e-06,-2.5754398e-06,4.1794615e-06,4
-5.6842337e-06,-5.31941e-06,-3.0212863e-05,-6.073361e-06,-3.0716078e-06,-2.316005e-07,-1.2626346e-06,-4.9571816e-05,-3.43329e-06,-9.801218e-06,-3.5825433e-06,-1.713739e-05,4
-1.2733681e-05,-8.8442675e-06,-1.4602883e-05,-1.5976357e-05,-8.734923e-06,-4.259522e-06,-9.654637e-06,-3.5131532e-05,-4.7752565e-06,-1.6850887e-05,-3.5825517e-06,-2.5362004e-05,4
-1.1054968e-05,-1.2536975e-05,-1.6281376e-05,-2.8564944e-05,-9.39136e-06,-4.0912123e-06,-1.1836219e-05,3.8727383e-05,-5.781984e-07,-1.852938e-05,-2.5754653e-06,-2.0997923e-05,4
-3.837231e-06,-1.3040545e-05,-2.9037918e-05,-3.3768163e-05,-5.4212405e-06,-9.0161626e-07,-1.0996515e-05,0.00010738297,3.2831636e-06,-1.3997449e-05,4.4581313e-07,-6.5628888e-06,4
3.5921835e-07,-9.012185e-06,-3.27306e-05,-2.6382691e-05,-2.020642e-06,1.1130346e-06,-8.310469e-06,0.00012904078,3.2839937e-06,-3.4229477e-06,2.1242963e-06,1.8614497e-05,4
-1.8226021e-06,-4.815976e-06,-2.0309757e-05,-1.1444006e-05,-6.6295877e-07,1.6170413e-06,-7.638616e-06,8.6412336e-05,2.7812766e-06,8.326499e-06,1.1171916e-06,5.1345098e-05,4
-8.368505e-06,-3.4732022e-06,-5.5390246e-06,5.1731713e-06,-2.1765086e-07,1.0685771e-07,-9.652349e-06,-3.208397e-05,3.9570537e-06,1.4033374e-05,-5.7761262e-08,7.484399e-05,4
-1.4075163e-05,-2.801825e-06,8.392462e-07,1.8265513e-05,-3.4183148e-07,-2.410421e-06,-1.032329e-05,-0.00013077406,4.964982e-06,1.4369071e-05,6.1362675e-07,7.534754e-05,4
-1.4074946e-05,-7.876531e-07,1.6784924e-07,2.4811732e-05,-1.5916683e-07,-4.2563042e-06,-5.6230547e-06,-0.00012741181,4.630118e-06,1.1179935e-05,1.1007071e-07,5.738767e-05,4
-1.0549897e-05,3.8727356e-07,-2.5177385e-06,2.6154625e-05,6.2186353e-07,-4.5915453e-06,2.521211e-07,-9.3333154e-05,3.959556e-06,6.3123084e-06,-5.778843e-08,3.8252856e-05,4
-1.0046134e-05,-1.962634e-06,-1.6784924e-06,2.6993968e-05,-1.0129056e-06,-3.2482922e-06,2.9381645e-06,-0.00011128774,1.9462016e-06,1.4446802e-06,-8.970447e-07,2.5999863e-05,4
-1.3067205e-05,-4.8160878e-06,-2.3129647e-20,2.7833312e-05,-3.5159023e-06,-1.2336441e-06,3.2743164e-06,-0.00012403903,-5.7069997e-07,-1.9123047e-06,-1.56845e-06,1.5928908e-05,4
-1.37383895e-05,-4.312556e-06,1.1749447e-06,2.464427e-05,-4.7490394e-06,-5.824014e-08,3.7783168e-06,-5.2362124e-05,-1.5769566e-06,-4.4300427e-06,-2.2566637e-07,5.3544063e-06,4
-1.1220436e-05,-2.8019283e-06,1.1749447e-06,1.9441039e-05,-4.0338664e-06,-5.613305e-07,7.807151e-06,4.3652915e-05,-2.2475142e-06,-8.458425e-06,1.2849672e-06,-2.870206e-06,4
-6.1847472e-06,-2.1305468e-06,1.0070954e-06,1.4741352e-05,-9.979085e-07,-2.2517413e-07,9.653946e-06,7.001052e-05,-4.7644116e-06,-1.38296e-05,4.4571257e-07,-7.5699845e-06,4
3.718568e-06,-1.1234638e-06,1.6784924e-06,1.1720156e-05,1.125959e-06,1.453775e-06,8.479455e-06,3.6949503e-05,-6.94561e-06,-1.6515189e-05,-2.2569509e-07,-9.080628e-06,4
1.5803924e-05,2.2335082e-06,2.5177385e-06,9.873905e-06,-5.087013e-07,2.461326e-06,6.465714e-06,-8.532359e-06,-9.294658e-06,-9.801218e-06,7.813912e-07,-8.912778e-06,4
2.2182407e-05,5.0869307e-06,4.3640803e-06,9.538295e-06,-2.6761431e-06,2.7974825e-06,4.7876733e-06,-4.6461002e-05,-8.454567e-06,6.3123084e-06,1.4527774e-06,-8.744929e-06,4
2.0504123e-05,5.926167e-06,5.8747232e-06,9.202684e-06,-2.230745e-06,3.1336378e-06,3.6131764e-06,-5.5183875e-05,-8.285873e-06,1.8061755e-05,3.1312604e-06,-8.409231e-06,4
1.7818744e-05,5.926156e-06,6.881819e-06,7.692127e-06,-1.1797619e-06,2.462695e-06,3.110079e-06,-2.1608741e-05,-1.0467067e-05,1.7726055e-05,3.8026485e-06,-5.7236425e-06,4
1.5469062e-05,5.926146e-06,8.224612e-06,7.356514e-06,-3.179427e-06,1.1326271e-07,-9.1785404e-07,3.764733e-05,-1.1976864e-05,8.997896e-06,4.1383364e-06,-3.5246669e-07,4
1.2112285e-05,4.91904e-06,9.903105e-06,7.860144e-06,-7.769483e-06,-1.7326238e-06,-6.6242787e-06,8.7503846e-05,-1.1472469e-05,1.276831e-06,4.641873e-06,5.6901044e-06,4
6.4056167e-06,2.1925406e-07,1.1078049e-05,7.524529e-06,-1.0914679e-05,-2.2357153e-06,-7.2952284e-06,9.338387e-05,-1.0128826e-05,-1.0730583e-06,4.138316e-06,9.382788e-06,4
-3.4972827e-06,-3.809136e-06,1.1413748e-05,5.5104197e-06,-1.0060979e-05,-1.8995624e-06,-3.7699472e-06,6.787608e-05,-9.288731e-06,-4.7657413e-06,3.6347576e-06,1.00541865e-05,4
-1.3064484e-05,-4.144842e-06,1.1245899e-05,3.8320068e-06,-6.7620967e-06,-2.5705035e-06,7.624276e-07,5.4285585e-05,-8.616482e-06,-1.3158203e-05,3.6347471e-06,4.0116124e-06,4
-1.4407073e-05,-3.3056024e-06,9.231708e-06,2.8249906e-06,-4.3682135e-06,-2.234351e-06,3.4484628e-06,6.38583e-05,-5.2586456e-06,-2.4068404e-05,3.4668876e-06,-6.059341e-06,4
-7.3572014e-06,-2.8020602e-06,3.3569847e-06,1.3948012e-07,-5.0252297e-06,-2.2338968e-06,3.1132106e-06,7.611659e-05,-8.9371264e-07,-3.330011e-05,3.1311781e-06,-1.2773311e-05,4
2.3782575e-06,1.897714e-06,2.5177385e-06,-1.2032376e-06,-5.754708e-06,-2.4012918e-06,2.1065607e-06,7.914319e-05,1.2891818e-06,-4.001408e-05,2.6276193e-06,-1.3276858e-05,4
1.0435223e-05,9.954473e-06,8.7281605e-06,4.7532947e-07,-4.3678647e-06,-2.4008382e-06,3.9533456e-06,6.991678e-05,2.6328303e-06,-4.1356874e-05,2.6276086e-06,-1.1430517e-05,4
1.2953163e-05,1.7004138e-05,1.1078049e-05,2.6574432e-06,-8.2872253e-07,-2.9039338e-06,8.150024e-06,3.6184392e-05,5.4871234e-06,-3.7328493e-05,4.306091e-06,-8.912778e-06,4
1.0939173e-05,1.9354024e-05,5.2033265e-06,3.161064e-06,3.3094514e-06,-2.5677805e-06,1.1507448e-05,-2.4739567e-05,6.495076e-06,-3.162162e-05,5.481024e-06,-8.073533e-06,4
5.736046e-06,1.5829188e-05,-1.8463417e-06,2.1540402e-06,4.528498e-06,-2.5673276e-06,1.1843593e-05,-6.082184e-05,4.6495925e-06,-2.7928936e-05,4.6417667e-06,-1.1262668e-05,4
7.0076874e-07,3.7440425e-06,-6.5461204e-06,2.8255074e-06,2.5285433e-06,-1.895479e-06,1.03333905e-05,-4.1513864e-05,4.482602e-06,-2.4739802e-05,2.7954136e-06,-1.51232e-05,4
-2.3203177e-06,-1.4215828e-05,-1.1917296e-05,6.0147113e-06,1.2955634e-06,-5.522327e-07,9.830285e-06,-2.8080607e-05,5.4905577e-06,-1.9368626e-05,3.1311015e-06,-1.8983732e-05,4
-4.3343107e-06,-2.4958179e-05,-1.4602883e-05,8.868216e-06,1.0040217e-06,1.4624104e-06,6.9772886e-06,-5.9127397e-05,4.820022e-06,-1.6011641e-05,3.4667892e-06,-2.0158677e-05,4
-7.3554e-06,-2.3279685e-05,-1.2252995e-05,6.854091e-06,1.8574315e-06,1.9664092e-06,2.4458004e-06,-8.7488595e-05,5.492281e-06,-1.4668847e-05,3.8024768e-06,-1.8312336e-05,4
-7.690902e-06,-1.539077e-05,-7.049668e-06,2.9936243e-06,4.652857e-06,1.1276157e-06,-4.071963e-07,-5.945245e-05,7.1716363e-06,-1.3158203e-05,4.138163e-06,-1.7808788e-05,4
-3.8301737e-06,-8.0054e-06,-8.392462e-07,3.6650852e-06,5.3684653e-06,6.2451807e-07,9.679039e-08,-1.2449336e-05,6.6689527e-06,-1.2151108e-05,2.9632058e-06,-1.8983732e-05,4
-1.3122407e-06,-4.816261e-06,4.5319293e-06,6.518585e-06,4.711157e-06,2.80701e-06,2.6149685e-06,2.3267241e-06,4.487778e-06,-1.2486807e-05,2.459647e-06,-1.8815883e-05,4
-1.3120463e-06,-3.8091612e-06,7.3853666e-06,7.693591e-06,5.660266e-06,4.318103e-06,4.461751e-06,4.6819437e-06,2.8101515e-06,-8.458425e-06,3.2988823e-06,-2.3179964e-05,4
3.094149e-08,-1.6271174e-06,7.721065e-06,6.1830074e-06,6.8794748e-06,3.6471572e-06,3.7907892e-06,1.2911886e-05,2.4753206e-06,-2.751551e-06,3.1310205e-06,-3.5936504e-05,4
8.703815e-07,1.0584761e-06,6.881819e-06,3.8331773e-06,6.0542466e-06,3.1440604e-06,-4.050035e-07,-1.2595864e-05,1.8047915e-06,6.05434e-07,1.7882157e-06,-5.4567772e-05,4
-8.079182e-07,1.8977294e-06,5.2033265e-06,4.7625014e-07,5.6605836e-06,3.4802083e-06,-7.957783e-06,-4.6496072e-05,1.2716826e-07,2.6973555e-07,7.811077e-07,-6.564582e-05,4
-3.3254667e-06,4.4154745e-06,4.0283817e-06,-3.0485273e-06,5.7049015e-06,2.473561e-06,-1.6349808e-05,1.4438537e-05,-2.8932477e-06,-2.4158524e-06,-2.2600034e-07,-6.648507e-05,4
-4.66807e-06,5.926126e-06,3.1891354e-06,-6.9090042e-06,3.368957e-06,-8.829727e-07,-1.9874207e-05,0.00013126695,-6.9207576e-06,-7.4513296e-06,-2.0723544e-06,-6.6652916e-05,4
-3.9964816e-06,5.9261347e-06,4.5319293e-06,-1.2112277e-05,-4.59692e-08,-3.2324135e-06,-1.7188182e-05,0.00017491309,-8.430528e-06,-1.3158203e-05,-2.4080648e-06,-6.816356e-05,4
-9.750071e-07,7.9403335e-06,9.903105e-06,-1.4797813e-05,-2.0157888e-06,-2.8962668e-06,-8.291739e-06,0.00013060622,-5.408369e-06,-1.6515189e-05,-1.56883e-06,-7.13527e-05,4
2.2143176e-06,9.954535e-06,1.2588693e-05,-1.1944323e-05,-2.337615e-06,-2.2244203e-06,2.1153485e-06,8.1431754e-05,8.0292654e-07,-1.5508092e-05,-2.5759384e-06,-7.487753e-05,4
8.717126e-07,6.933258e-06,7.888914e-06,-7.0766446e-06,-7.170385e-07,-1.384727e-06,8.494054e-06,6.98555e-05,4.6643345e-06,-1.0808314e-05,-4.086595e-06,-7.6388176e-05,4
-2.149386e-06,-2.8424722e-07,-3.1891354e-06,-3.2160638e-06,1.0058784e-06,1.2636485e-07,8.158789e-06,7.7246215e-05,4.4973613e-06,-4.9335913e-06,-5.2615505e-06,-7.068129e-05,4
-4.3312393e-06,-4.816164e-06,-2.1149004e-05,1.409691e-07,2.0267737e-06,4.625105e-07,7.823519e-06,8.430123e-05,2.8197458e-06,-2.3381217e-07,-3.2473722e-06,-5.8428304e-05,4
-7.0166425e-06,-5.319699e-06,-3.8773174e-05,4.8407946e-06,3.1438246e-06,1.272599e-07,1.0173842e-05,8.4642284e-05,-2.0066193e-07,4.2981173e-06,-1.5688929e-06,-4.550391e-05,4
-1.0373443e-05,-4.8161373e-06,-4.8004884e-05,7.5264275e-06,3.356153e-06,-2.222182e-06,9.502876e-06,7.3569594e-05,-1.7104259e-06,1.0844237e-05,-2.4081528e-06,-3.308307e-05,4
-1.10446545e-05,-6.158917e-06,-4.4144348e-05,5.512281e-06,2.0270857e-06,-5.2430223e-06,6.482021e-06,5.662218e-05,-1.2059976e-06,1.8901e-05,-3.2474106e-06,-2.0158677e-05,4
-9.701676e-06,-7.501696e-06,-3.1387808e-05,2.4910369e-06,2.8084626e-06,-5.2425758e-06,7.153847e-06,4.873862e-05,-2.2122124e-06,2.5111423e-05,-2.5760276e-06,7.3685974e-06,4
-8.023002e-06,-7.837379e-06,-1.4435034e-05,4.1695703e-06,2.6851453e-06,-4.2350334e-06,9.168469e-06,4.37085e-05,-3.2184264e-06,2.8468407e-05,-8.975487e-07,8.357216e-05,4
-6.512177e-06,-5.487472e-06,8.392462e-07,9.205089e-06,2.195251e-06,-3.3953415e-06,8.497502e-06,-2.108978e-06,-2.378297e-06,2.9475503e-05,1.6201782e-06,0.00018914932,4
-8.526185e-06,-2.801867e-06,1.2252995e-05,1.4240604e-05,9.624608e-07,-2.2199508e-06,2.1196581e-06,-0.0001284941,-1.370316e-06,2.7461312e-05,1.2844649e-06,0.00023698637,4
-1.3897181e-05,-1.6269048e-06,2.0141908e-05,1.8940422e-05,-1.3428421e-06,-2.2195054e-06,-8.7901135e-06,-0.00029079893,-6.404909e-06,1.9572397e-05,-1.2332864e-06,0.00019334556,4
-1.8093233e-05,-1.1624289e-07,2.2659648e-05,2.1290347e-05,-2.00066e-06,-4.2332513e-06,-2.0706982e-05,-0.0003703541,-3.0070765e-05,5.8087608e-06,-1.9046959e-06,9.9853525e-05,4
-1.7421653e-05,4.2478578e-06,2.5009536e-05,1.9947589e-05,-1.0513844e-06,-5.4077514e-06,-2.909902e-05,-0.00029985208,-5.9443497e-05,-6.444234e-06,-1.2333134e-06,2.0125139e-05,4
-1.1043205e-05,7.772712e-06,2.870222e-05,1.6926337e-05,1.6819901e-07,-4.568062e-06,-2.926644e-05,-0.00014844668,-6.716367e-05,-1.5004545e-05,-5.6193096e-07,-1.8312336e-05,4
-2.9862645e-06,7.2691864e-06,3.3401997e-05,1.2226591e-05,2.0280481e-06,-2.8891247e-06,-2.0873553e-05,-1.466546e-05,-4.8195816e-05,-1.6515189e-05,-1.9047367e-06,-3.0229632e-05,4
4.231431e-06,8.9093606e-07,4.179446e-05,5.3448043e-06,4.596079e-07,-1.5458869e-06,-1.2648517e-05,4.5765642e-05,-1.8317765e-05,-1.0976164e-05,-4.254641e-06,-3.5600806e-05,4
9.099235e-06,-3.6409704e-06,5.018692e-05,-2.7119304e-06,-2.8526854e-06,-2.2168392e-06,-1.0633902e-05,3.167168e-05,7.028362e-06,-4.4300427e-06,-3.918957e-06,-3.9629187e-05,4
1.1113602e-05,-1.1611399e-07,5.0858318e-05,-7.747378e-06,-5.1891393e-06,-4.901985e-06,-1.1472724e-05,-2.0188356e-05,2.2639233e-05,1.1089817e-06,-1.0655332e-06,-4.0636285e-05,4
1.0442381e-05,-2.8016768e-06,3.6087586e-05,-6.7402543e-06,-4.0719683e-06,-5.7407888e-06,-7.1082204e-06,-7.809096e-05,2.616496e-05,5.473062e-06,4.450968e-07,-4.0132738e-05,4
6.4141727e-06,-1.48867975e-05,1.4435034e-05,-1.2012025e-06,-2.3487314e-06,-2.5512081e-06,-1.90447e-06,-0.000106787804,2.3480266e-05,5.6409112e-06,4.450827e-07,-4.0468436e-05,4
2.7216631e-06,-1.8579456e-05,5.2033265e-06,5.177094e-06,-3.5103142e-06,1.8133134e-06,4.458392e-07,-7.808019e-05,1.7270739e-05,2.9553235e-06,-7.298775e-07,-3.9629187e-05,4
-2.9944988e-07,-1.5725991e-05,1.1581597e-05,1.3165861e-06,-4.407308e-06,3.1565505e-06,3.4675477e-06,-2.4363057e-05,5.522188e-06,-1.2409076e-06,-2.2634379e-07,-3.744715e-05,4
-4.3276586e-06,-2.0593592e-05,1.9974059e-05,-1.9832394e-05,-2.0126222e-06,4.6676355e-06,6.3214065e-06,8.87648e-06,-6.897758e-06,-5.10144e-06,2.794928e-06,-2.9054687e-05,4
-8.188022e-06,-3.083237e-05,2.0309757e-05,-4.551331e-05,1.8270933e-07,5.84302e-06,6.825374e-06,4.1444622e-05,-1.2100187e-05,-9.297672e-06,3.4663115e-06,-7.737834e-06,4
-6.8450563e-06,-2.646826e-05,1.544213e-05,-5.793413e-05,2.4748738e-06,3.8292715e-06,7.161492e-06,0.00010221144,-7.0638107e-06,-1.2990355e-05,1.4521049e-06,2.650341e-05,4
2.7225205e-06,1.2268936e-06,1.1078049e-05,-5.172369e-05,6.733827e-07,1.3702922e-07,7.833307e-06,0.0001529073,6.0293287e-06,-1.4836696e-05,1.0929828e-07,7.215841e-05,4
1.4807835e-05,4.0167946e-05,8.3924615e-06,-3.6952937e-05,-4.181029e-06,-1.2053251e-06,1.0183617e-05,0.00015425548,1.7611826e-05,-1.4333149e-05,-7.299644e-07,0.00012603801,4
2.1857672e-05,6.0981285e-05,4.1962307e-06,-2.4028528e-05,-5.9172216e-06,8.093063e-07,1.4715963e-05,0.00011263427,1.6605634e-05,-1.2822506e-05,-8.978282e-07,0.00016346839,4
2.2529237e-05,5.158176e-05,-8.224612e-06,-1.1943369e-05,-2.0117861e-06,3.998882e-06,2.0926804e-05,5.926361e-05,-1.7838774e-07,-1.1144013e-05,-5.859607e-08,0.00016095064,4
1.900457e-05,2.791505e-05,-2.870222e-05,-2.711648e-06,2.0297405e-06,4.838569e-06,2.1934315e-05,1.2942617e-05,-1.0919836e-05,-5.940686e-06,7.80635e-07,0.00012553445,4
1.58156e-05,1.0458759e-05,-4.850843e-05,-1.200991e-06,6.2927097e-07,4.5033107e-06,1.622786e-05,-2.934999e-05,-2.6943187e-06,6.6480065e-06,9.4846894e-07,8.071871e-05,4
1.1283837e-05,3.409125e-06,-6.1264975e-05,-5.2293603e-06,-3.0184553e-06,4.1680496e-06,1.1192796e-05,-6.140379e-05,1.6944949e-05,2.3768629e-05,2.794795e-06,4.3791882e-05,4
2.0522937e-06,2.9056123e-06,-6.361486e-05,-7.914939e-06,-4.683877e-06,2.8256957e-06,4.4792446e-06,-8.640793e-05,3.608067e-05,3.9882154e-05,3.4661775e-06,2.0796535e-05,4
-8.018497e-06,3.0734966e-06,-5.6565194e-05,-6.0685884e-06,-4.4058297e-06,3.083952e-07,-4.9198998e-06,-0.000104194536,4.816672e-05,4.777107e-05,2.1233684e-06,9.047089e-06,4
-9.696824e-06,3.2413816e-06,-4.4815748e-05,-3.5508403e-06,-4.0251225e-06,-3.6256256e-07,-8.276471e-06,-6.323392e-05,4.9342572e-05,4.4414086e-05,1.451955e-06,3.0045182e-06,4
-3.1505429e-06,3.9128163e-06,-3.2394903e-05,-3.3829847e-06,-4.179974e-06,8.128184e-07,-7.6046613e-06,4.4530705e-05,4.6657893e-05,3.7364418e-05,1.6197905e-06,-2.1988087e-06,4
3.0600413e-06,2.9057578e-06,-2.0477608e-05,-4.222226e-06,-3.398353e-06,3.0970907e-07,-8.611342e-06,0.00011771838,4.0448384e-05,2.9139805e-05,1.284075e-06,-8.241382e-06,4
1.8852586e-06,-1.1549103e-07,-6.881819e-06,-5.229316e-06,-2.681895e-06,-1.9340061e-07,-1.4653504e-05,9.019652e-05,3.1385436e-05,1.9740248e-05,6.126633e-07,-1.2437612e-05,4
